Wavelength [nm],Voltage [V]
600.0,0.11188878529411767
600.09375,0.11190103529411766
600.1875,0.11218516470588234
600.3125,0.11226244705882352
600.40625,0.11200206470588238
600.5,0.11250749411764704
600.59375,0.11178161764705881
600.6875,0.11178798823529412
600.8125,0.11189199117647056
600.90625,0.1120756205882353
601.0,0.11248546764705884
601.09375,0.1120912470588235
601.1875,0.1117635382352941
601.3125,0.11219953529411766
601.40625,0.11178084117647058
601.5,0.11281587352941178
601.59375,0.11143232352941179
601.6875,0.11178210000000001
601.8125,0.11182940588235296
601.90625,0.11177155588235292
602.0,0.11172941176470588
602.09375,0.11231013529411765
602.1875,0.11228328529411766
602.3125,0.11194972058823527
602.40625,0.11231740294117645
602.5,0.11193821764705884
602.59375,0.11224616176470587
602.6875,0.11232718529411764
602.8125,0.11228423823529411
602.90625,0.11252733529411765
603.0,0.11200558235294114
603.09375,0.11289288823529411
603.1875,0.11373004999999997
603.3125,0.1139542
603.40625,0.11479652647058824
603.5,0.11488400588235295
603.59375,0.11599472941176468
603.6875,0.11711309411764706
603.8125,0.1174439176470588
603.90625,0.11729452352941175
604.0,0.1172290205882353
604.09375,0.11629297352941177
604.1875,0.1144595382352941
604.3125,0.11443944411764705
604.40625,0.11475695882352942
604.5,0.11350411764705885
604.59375,0.11298002058823531
604.6875,0.11224253529411765
604.8125,0.11200795294117648
604.90625,0.11236428529411767
605.0,0.11240164999999999
605.09375,0.11221507058823532
605.1875,0.11249204117647059
605.3125,0.11221831470588238
605.40625,0.11204352058823527
605.5,0.11203877352941174
605.59375,0.11236522058823531
605.6875,0.11178922352941177
605.8125,0.11216943235294116
605.90625,0.11168194705882356
606.0,0.11183690882352941
606.09375,0.1115217294117647
606.1875,0.11214530588235294
606.3125,0.11268222352941175
606.40625,0.11226539117647057
606.5,0.11187608235294118
606.59375,0.11197600294117649
606.6875,0.11161775294117647
606.8125,0.1125045794117647
606.90625,0.11195170000000004
607.0,0.11225514411764703
607.09375,0.11264372058823531
607.1875,0.11220518823529411
607.3125,0.11247180000000001
607.40625,0.11182307058823532
607.5,0.11228385588235294
607.59375,0.11217275588235294
607.6875,0.11274829411764704
607.8125,0.11229295882352941
607.90625,0.11207781764705882
608.0,0.11234302058823531
608.09375,0.11196654117647059
608.1875,0.11256819411764704
608.3125,0.11227799999999999
608.40625,0.11215380294117647
608.5,0.11193104117647064
608.59375,0.11225012058823532
608.6875,0.11205130588235297
608.8125,0.11210515588235297
608.90625,0.11215662647058823
609.0,0.11221417058823528
609.09375,0.11243474117647059
609.1875,0.11242369411764705
609.3125,0.11238806470588236
609.40625,0.11220776764705886
609.5,0.11243395294117647
609.59375,0.11210000588235293
609.6875,0.11236134411764705
609.8125,0.11273534117647055
609.90625,0.1118137882352941
610.0,0.11229257058823529
610.09375,0.11254431176470589
610.1875,0.11249580882352939
610.3125,0.11276584411764705
610.40625,0.11267708823529415
610.5,0.11256812647058825
610.59375,0.11284320588235293
610.6875,0.11463183823529412
610.8125,0.11746993235294118
610.90625,0.11926046470588234
611.0,0.13118927647058828
611.09375,0.16585627941176462
611.1875,0.21280469117647058
611.3125,0.2327182882352941
611.40625,0.24398799999999998
611.5,0.27462326764705886
611.59375,0.32501294117647056
611.6875,0.3541201617647058
611.8125,0.3552861617647059
611.90625,0.3540389823529411
612.0,0.3390770176470588
612.09375,0.2995308147058823
612.1875,0.24455997352941172
612.3125,0.22121207941176463
612.40625,0.2056158352941177
612.5,0.17644657352941182
612.59375,0.1365087441176471
612.6875,0.11710767647058824
612.8125,0.11534761470588238
612.90625,0.11449596764705884
613.0,0.11261188823529411
613.09375,0.11237842941176471
613.1875,0.11253100294117646
613.3125,0.11284330294117649
613.40625,0.11269641176470589
613.5,0.11266972647058826
613.59375,0.11251647941176467
613.6875,0.11249352058823532
613.8125,0.11255407352941178
613.90625,0.11191199705882354
614.0,0.11236113235294115
614.09375,0.11354685294117649
614.1875,0.11295481176470586
614.3125,0.11233677647058822
614.40625,0.11166920294117645
614.5,0.11210385588235293
614.59375,0.11237398235294119
614.6875,0.1120610294117647
614.8125,0.11231785
614.90625,0.11216308235294119
615.0,0.11269598235294111
615.09375,0.11228212352941179
615.1875,0.11206219705882352
615.3125,0.11233415588235296
615.40625,0.11252533235294121
615.5,0.1121569823529412
615.59375,0.112124705882353
615.6875,0.11205628529411768
615.8125,0.11205207647058824
615.90625,0.11219038235294118
616.0,0.11202610588235294
616.09375,0.11209770588235293
616.1875,0.11229782647058825
616.3125,0.11197041470588236
616.40625,0.11188359705882356
616.5,0.1124189176470588
616.59375,0.11249622352941176
616.6875,0.1119497588235294
616.8125,0.11209931764705883
616.90625,0.11194849117647056
617.0,0.11221005588235293
617.09375,0.11243428529411766
617.1875,0.11205012352941177
617.3125,0.1121244882352941
617.40625,0.11206697058823531
617.5,0.11185493235294114
617.59375,0.11226150882352941
617.6875,0.11237194999999998
617.8125,0.11213664999999999
617.90625,0.11223525294117648
618.0,0.11232960294117647
618.09375,0.11209044117647059
618.1875,0.11245990294117647
618.3125,0.11203489999999999
618.40625,0.11246519411764704
618.5,0.11212403235294119
618.59375,0.11353687058823529
618.6875,0.1146635529411765
618.8125,0.11581954117647057
618.90625,0.11709022058823527
619.0,0.11894373235294117
619.09375,0.1226819823529412
619.1875,0.12742605294117645
619.3125,0.13016462941176468
619.40625,0.13162438235294113
619.5,0.13381645588235294
619.59375,0.13628713235294113
619.6875,0.13695490000000002
619.8125,0.1362002029411765
619.90625,0.13551681764705883
620.0,0.1334952323529412
620.09375,0.12969834117647058
620.1875,0.12520963529411763
620.3125,0.12255339411764705
620.40625,0.12114414999999999
620.5,0.11892912941176469
620.59375,0.1157049882352941
620.6875,0.11341076764705882
620.8125,0.11278147058823529
620.90625,0.11300990588235292
621.0,0.11294595588235297
621.09375,0.11295047352941175
621.1875,0.1122337
621.3125,0.11212499705882352
621.40625,0.11187717058823528
621.5,0.11217492941176471
621.59375,0.11265306176470587
621.6875,0.11172534411764706
621.8125,0.11254425588235295
621.90625,0.11237088529411764
622.0,0.11238891764705883
622.09375,0.11195958529411765
622.1875,0.11151172941176471
622.3125,0.11213794705882352
622.40625,0.11207069705882354
622.5,0.11187850294117647
622.59375,0.11236362058823533
622.6875,0.11196840882352943
622.8125,0.11208033529411764
622.90625,0.11213307647058823
623.0,0.11236476470588234
623.09375,0.11199313235294117
623.1875,0.11228758235294119
623.3125,0.1122019117647059
623.40625,0.11188547647058822
623.5,0.11209653529411764
623.59375,0.11226676470588234
623.6875,0.11168434705882356
623.8125,0.11150306176470587
623.90625,0.11183893529411765
624.0,0.11199846176470588
624.09375,0.11201426176470587
624.1875,0.11160840588235295
624.3125,0.11211671470588239
624.40625,0.11230247647058822
624.5,0.11194462352941179
624.59375,0.11190542647058822
624.6875,0.11195344705882353
624.8125,0.11185018529411764
624.90625,0.1122201411764706
625.0,0.11228250294117649
625.09375,0.11200438235294118
625.1875,0.11205807647058824
625.3125,0.11239735294117646
625.40625,0.11212452058823533
625.5,0.11182424705882354
625.59375,0.1122711205882353
625.6875,0.11213035294117647
625.8125,0.11161385000000001
625.90625,0.11204006470588236
626.0,0.11180303823529412
626.09375,0.11237584411764708
626.1875,0.11242786176470586
626.3125,0.1120284705882353
626.40625,0.11262978529411766
626.5,0.11168703529411765
626.59375,0.11170732352941176
626.6875,0.11265684117647061
626.8125,0.11272905
626.90625,0.11283875882352942
627.0,0.1140951588235294
627.09375,0.11601074117647059
627.1875,0.12219442058823529
627.3125,0.12430465294117647
627.40625,0.12626174411764707
627.5,0.13005644411764705
627.59375,0.13798580588235296
627.6875,0.1448196970588235
627.8125,0.14611215588235293
627.90625,0.14550345588235297
628.0,0.14395533529411764
628.09375,0.13972051470588237
628.1875,0.13151507647058824
628.3125,0.12919422647058829
628.40625,0.1284008411764706
628.5,0.12354494411764708
628.59375,0.11828979411764709
628.6875,0.11407752352941174
628.8125,0.11365707352941176
628.90625,0.11307251470588234
629.0,0.11270766176470587
629.09375,0.11252665588235294
629.1875,0.11279295882352942
629.3125,0.11256776764705882
629.40625,0.11237521470588238
629.5,0.11219167647058823
629.59375,0.1121687382352941
629.6875,0.11216022941176472
629.8125,0.11163854411764706
629.90625,0.11205950588235293
630.0,0.11225736470588232
630.09375,0.11236659411764706
630.1875,0.11220431764705885
630.3125,0.11191061764705885
630.40625,0.1124913882352941
630.5,0.11232286764705883
630.59375,0.112558
630.6875,0.11202985000000001
630.8125,0.11223898529411766
630.90625,0.11237668529411766
631.0,0.11173148529411768
631.09375,0.11234475882352941
631.1875,0.11200730000000002
631.3125,0.11190707647058822
631.40625,0.11217674705882354
631.5,0.11219665882352942
631.59375,0.11200201470588236
631.6875,0.11162021470588236
631.8125,0.11181129117647061
631.90625,0.11214106176470587
632.0,0.11190413823529409
632.09375,0.1123000911764706
632.1875,0.11233034411764704
632.3125,0.11175723235294117
632.40625,0.11217308235294111
632.5,0.1119529117647059
632.59375,0.11225793235294115
632.6875,0.11181385
632.8125,0.11179705294117646
632.90625,0.1124632235294118
633.0,0.11228793235294118
633.09375,0.11207455000000002
633.1875,0.11180943529411765
633.3125,0.1120881794117647
633.40625,0.11193864411764705
633.5,0.11203114117647056
633.59375,0.11152419705882353
633.6875,0.11186307058823532
633.8125,0.1119487294117647
633.90625,0.11185733823529412
634.0,0.11170524705882351
634.09375,0.11245595000000001
634.1875,0.11165529705882353
634.3125,0.1117431705882353
634.40625,0.11221168529411761
634.5,0.1118354088235294
634.59375,0.11180583235294118
634.6875,0.11202762647058827
634.8125,0.1119932058823529
634.90625,0.11177849999999999
635.0,0.11193827941176471
635.09375,0.1122140911764706
635.1875,0.11269997647058824
635.3125,0.11234332647058824
635.40625,0.11347050588235294
635.5,0.11370200000000001
635.59375,0.11601022352941179
635.6875,0.12058876764705884
635.8125,0.12260619411764709
635.90625,0.12425908823529414
636.0,0.12752368529411764
636.09375,0.13212905
636.1875,0.1347052794117647
636.3125,0.13635199705882356
636.40625,0.13763659117647056
636.5,0.13645357058823526
636.59375,0.13495637647058822
636.6875,0.12900101470588238
636.8125,0.1253264705882353
636.90625,0.12465995
637.0,0.12118737352941175
637.09375,0.11718027352941175
637.1875,0.11499332647058824
637.3125,0.11442049117647057
637.40625,0.11343821764705882
637.5,0.11332496176470583
637.59375,0.11358232058823532
637.6875,0.1126587470588235
637.8125,0.11267168235294113
637.90625,0.11270615882352943
638.0,0.11238642647058826
638.09375,0.11261837352941173
638.1875,0.11244654117647059
638.3125,0.11239639117647059
638.40625,0.11277345000000004
638.5,0.11210704117647059
638.59375,0.11222790588235294
638.6875,0.11209595588235297
638.8125,0.11239059411764704
638.90625,0.11199894999999997
639.0,0.11218636470588235
639.09375,0.1121764852941177
639.1875,0.11181508235294117
639.3125,0.11189428235294117
639.40625,0.1119966882352941
639.5,0.11213599411764708
639.59375,0.11220913823529415
639.6875,0.11226393529411761
639.8125,0.11184694705882353
639.90625,0.11155447058823531
640.0,0.11218957352941175
640.09375,0.11185871470588235
640.1875,0.11257106470588235
640.3125,0.11281530588235295
640.40625,0.11196092647058822
640.5,0.11206877941176473
640.59375,0.11162895
640.6875,0.11148725882352943
640.8125,0.11167650000000001
640.90625,0.11206895294117646
641.0,0.11164337941176472
641.09375,0.11211704117647057
641.1875,0.11207929117647063
641.3125,0.11186935294117646
641.40625,0.11160621764705884
641.5,0.11195738529411767
641.59375,0.11223495588235292
641.6875,0.11153473823529413
641.8125,0.1119666911764706
641.90625,0.1119175911764706
642.0,0.11142992058823528
642.09375,0.11200742058823529
642.1875,0.11187010000000003
642.3125,0.11207592647058827
642.40625,0.11209461176470586
642.5,0.11164844411764707
642.59375,0.11141210882352941
642.6875,0.11217155588235295
642.8125,0.1116609794117647
642.90625,0.11195536470588233
643.0,0.11197188529411764
643.09375,0.11194858529411764
643.1875,0.11150698823529413
643.3125,0.11247475294117645
643.40625,0.11201693529411766
643.5,0.11242366764705881
643.59375,0.11278851764705881
643.6875,0.11314893235294117
643.8125,0.11391056470588234
643.90625,0.11395263823529413
644.0,0.11480510882352941
644.09375,0.11535992352941175
644.1875,0.11603726176470587
644.3125,0.11681688823529413
644.40625,0.11642496764705881
644.5,0.11727731176470588
644.59375,0.11728698529411763
644.6875,0.11751242352941176
644.8125,0.11667662352941177
644.90625,0.11703210588235295
645.0,0.11648492647058821
645.09375,0.11582422058823531
645.1875,0.11455816764705881
645.3125,0.11358412352941176
645.40625,0.11361002352941177
645.5,0.11326210294117649
645.59375,0.11270649411764706
645.6875,0.11222871176470586
645.8125,0.11175617647058826
645.90625,0.11175125882352939
646.0,0.11164848529411764
646.09375,0.1118097088235294
646.1875,0.11183736176470586
646.3125,0.11123274999999999
646.40625,0.11157588529411765
646.5,0.1117203088235294
646.59375,0.1120902205882353
646.6875,0.11215684411764709
646.8125,0.1119558794117647
646.90625,0.11184778823529408
647.0,0.11226475
647.09375,0.11169157647058824
647.1875,0.11167959705882351
647.3125,0.11181688235294117
647.40625,0.11209095294117648
647.5,0.11194747058823533
647.59375,0.11195852647058824
647.6875,0.11163061470588233
647.8125,0.11154278823529414
647.90625,0.11178942941176469
648.0,0.11150362352941176
648.09375,0.11190986764705883
648.1875,0.11115026176470588
648.3125,0.11179195294117646
648.40625,0.11158493529411764
648.5,0.11174389705882352
648.59375,0.11196972647058823
648.6875,0.11153101176470588
648.8125,0.11176798529411765
648.90625,0.11239062941176473
649.0,0.11177864411764708
649.09375,0.11203217058823534
649.1875,0.11206925882352942
649.3125,0.11166972058823531
649.40625,0.11183484411764706
649.5,0.11165400294117646
649.59375,0.11242071764705878
649.6875,0.11165376764705881
649.8125,0.1118534
649.90625,0.11162694411764704
650.0,0.11216038235294117
650.09375,0.11204175294117645
650.1875,0.11222279411764706
650.3125,0.11198759411764703
650.40625,0.11207779117647061
650.5,0.11215815882352942
650.59375,0.11202709411764707
650.6875,0.11190194117647058
650.8125,0.11215590882352941
650.90625,0.11191097352941179
651.0,0.1120623205882353
651.09375,0.11218970294117646
651.1875,0.11216020882352944
651.3125,0.11203724411764704
651.40625,0.11166814117647055
651.5,0.11213043823529413
651.59375,0.11164181176470586
651.6875,0.1121743794117647
651.8125,0.11182409705882353
651.90625,0.11192125294117648
652.0,0.11193677352941178
652.09375,0.11182219705882353
652.1875,0.11234548235294117
652.3125,0.11258707352941176
652.40625,0.11306522352941174
652.5,0.11290180882352945
652.59375,0.11381524117647057
652.6875,0.11484775588235292
652.8125,0.11519181764705881
652.90625,0.11485145294117646
653.0,0.11547366470588237
653.09375,0.11579812941176473
653.1875,0.11528370294117647
653.3125,0.1154610205882353
653.40625,0.11606351470588235
653.5,0.11509976764705881
653.59375,0.11489349411764704
653.6875,0.11377875
653.8125,0.1133897411764706
653.90625,0.11279655882352943
654.0,0.11255812352941177
654.09375,0.11199370294117644
654.1875,0.11220948235294118
654.3125,0.11189346764705883
654.40625,0.11198357941176468
654.5,0.11203171470588236
654.59375,0.1116914617647059
654.6875,0.11199030588235295
654.8125,0.11219921764705885
654.90625,0.11162532352941175
655.0,0.11144896176470588
655.09375,0.11238514999999998
655.1875,0.11173728823529414
655.3125,0.11207142352941175
655.40625,0.1118060117647059
655.5,0.11137703529411763
655.59375,0.11172987352941177
655.6875,0.11187683529411763
655.8125,0.11183552647058823
655.90625,0.11138549705882357
656.0,0.11167925588235295
656.09375,0.1108437382352941
656.1875,0.11205243235294117
656.3125,0.11149207941176471
656.40625,0.11185021764705882
656.5,0.11204643235294118
656.59375,0.11188580588235296
656.6875,0.11162045882352939
656.8125,0.11191577647058824
656.90625,0.11173822058823529
657.0,0.11175347941176468
657.09375,0.11190274411764706
657.1875,0.11191862941176475
657.3125,0.11176687058823526
657.40625,0.11203151176470587
657.5,0.1113416
657.59375,0.11195023823529411
657.6875,0.1116511823529412
657.8125,0.1120388705882353
657.90625,0.11176116176470588
658.0,0.11195921764705885
658.09375,0.11139316470588237
658.1875,0.11153954411764708
658.3125,0.1117143441176471
658.40625,0.11181096764705879
658.5,0.11202799117647062
658.59375,0.11158702647058824
658.6875,0.11176149705882354
658.8125,0.11209935588235294
658.90625,0.11189355588235295
659.0,0.11164106176470587
659.09375,0.11211832941176472
659.1875,0.11196838529411766
659.3125,0.11214186764705884
659.40625,0.11257992941176471
659.5,0.11183682647058826
659.59375,0.11204256176470588
659.6875,0.11167184411764706
659.8125,0.11195659705882352
659.90625,0.11211476176470589
660.0,0.11187953529411765
660.09375,0.11167710588235294
660.1875,0.11193487941176472
660.3125,0.11226457352941177
660.40625,0.1122447176470588
660.5,0.11162982352941175
660.59375,0.11177195294117648
660.6875,0.11183550294117649
660.8125,0.11216663235294115
660.90625,0.11190376470588237
661.0,0.11252506470588235
661.09375,0.11257666176470588
661.1875,0.11269315588235293
661.3125,0.1125319117647059
661.40625,0.11327207058823528
661.5,0.11389362058823527
661.59375,0.11559055882352942
661.6875,0.11921449411764705
661.8125,0.1210615
661.90625,0.12250960000000001
662.0,0.12525030588235297
662.09375,0.12920286470588235
662.1875,0.1315819970588235
662.3125,0.13166048235294117
662.40625,0.13169912352941177
662.5,0.13109541176470585
662.59375,0.1278387411764706
662.6875,0.12261397647058822
662.8125,0.12112487352941177
662.90625,0.11963687647058825
663.0,0.11788472058823529
663.09375,0.11539665000000002
663.1875,0.11320777352941179
663.3125,0.11302417058823529
663.40625,0.11254536470588235
663.5,0.11176924411764706
663.59375,0.11265937352941177
663.6875,0.11253478823529411
663.8125,0.11188075294117646
663.90625,0.11185703823529412
664.0,0.11158420294117648
664.09375,0.11163795588235294
664.1875,0.11150376764705884
664.3125,0.11131149705882352
664.40625,0.11185778235294115
664.5,0.11165721176470589
664.59375,0.11163469411764705
664.6875,0.11196745882352939
664.8125,0.11173967058823531
664.90625,0.11175548235294118
665.0,0.11211644705882352
665.09375,0.1118873088235294
665.1875,0.11194235588235293
665.3125,0.11173105000000004
665.40625,0.11205031764705882
665.5,0.11209956176470588
665.59375,0.1117743882352941
665.6875,0.11153045294117649
665.8125,0.11191215294117646
665.90625,0.11205307058823528
666.0,0.11183346176470588
666.09375,0.11177543235294116
666.1875,0.11131495588235293
666.3125,0.11173339411764703
666.40625,0.11178622352941174
666.5,0.1118434970588235
666.59375,0.11150647647058823
666.6875,0.11170013529411765
666.8125,0.1118212617647059
666.90625,0.11231507058823528
667.0,0.11188815588235294
667.09375,0.1120429529411765
667.1875,0.1119045794117647
667.3125,0.11246717647058822
667.40625,0.1123811617647059
667.5,0.11267081470588233
667.59375,0.11296779117647056
667.6875,0.11246961764705882
667.8125,0.11279894117647059
667.90625,0.11300236470588235
668.0,0.11246982941176471
668.09375,0.11222937647058825
668.1875,0.11184939117647061
668.3125,0.11220474411764705
668.40625,0.11192092058823533
668.5,0.11176918529411765
668.59375,0.1119241911764706
668.6875,0.11178049999999998
668.8125,0.11186787352941177
668.90625,0.11138748235294116
669.0,0.11203960882352944
669.09375,0.11178075294117647
669.1875,0.11169785588235294
669.3125,0.11223537647058823
669.40625,0.11225736470588234
669.5,0.11216293529411765
669.59375,0.11213629117647061
669.6875,0.11183238529411763
669.8125,0.11237996176470585
669.90625,0.11252097352941175
670.0,0.11199559411764708
670.09375,0.11250458235294121
670.1875,0.11275350000000002
670.3125,0.11283053529411764
670.40625,0.11342482058823529
670.5,0.11359244705882351
670.59375,0.11501021176470592
670.6875,0.11850111176470589
670.8125,0.12020867647058825
670.90625,0.12130360588235292
671.0,0.12385287352941174
671.09375,0.12703034117647058
671.1875,0.12916263235294115
671.3125,0.12988043823529413
671.40625,0.13016357941176473
671.5,0.13015173823529413
671.59375,0.12931333529411762
671.6875,0.12542443823529412
671.8125,0.12332048529411764
671.90625,0.12248923823529413
672.0,0.12018861764705883
672.09375,0.11714096470588235
672.1875,0.11353789999999998
672.3125,0.11385533235294115
672.40625,0.11324278823529411
672.5,0.1122227588235294
672.59375,0.11180627647058823
672.6875,0.11187762352941177
672.8125,0.1118194323529412
672.90625,0.11189999117647056
673.0,0.11177500588235297
673.09375,0.1119637117647059
673.1875,0.11189130294117647
673.3125,0.11210101470588237
673.40625,0.11216587941176469
673.5,0.11157775294117646
673.59375,0.11160952647058822
673.6875,0.11198342647058823
673.8125,0.11184384411764707
673.90625,0.1119495676470588
674.0,0.11188314117647058
674.09375,0.1122769441176471
674.1875,0.11122446764705882
674.3125,0.11175949117647062
674.40625,0.11173497352941174
674.5,0.11212166764705885
674.59375,0.1117659823529412
674.6875,0.11166902647058823
674.8125,0.11186355
674.90625,0.11148178529411767
675.0,0.1114389617647059
675.09375,0.11197876176470588
675.1875,0.11177041470588238
675.3125,0.1117503264705882
675.40625,0.11193866764705881
675.5,0.11139890000000001
675.59375,0.11151107647058824
675.6875,0.11172825
675.8125,0.11166355294117644
675.90625,0.11171401764705882
676.0,0.11176876176470592
676.09375,0.11186283235294119
676.1875,0.11170240294117648
676.3125,0.11112861764705884
676.40625,0.11126707352941177
676.5,0.11166049411764707
676.59375,0.1121247029411765
676.6875,0.11165961764705884
676.8125,0.1119121205882353
676.90625,0.11153402352941177
677.0,0.11214668529411764
677.09375,0.11187934999999996
677.1875,0.1118690764705882
677.3125,0.11135784411764704
677.40625,0.11155177352941176
677.5,0.11165979117647054
677.59375,0.11203907647058822
677.6875,0.1119508705882353
677.8125,0.11115502352941173
677.90625,0.11170344705882353
678.0,0.11154240294117647
678.09375,0.11189043823529413
678.1875,0.1116983411764706
678.3125,0.11136446176470591
678.40625,0.11154027058823529
678.5,0.11193211470588235
678.59375,0.11149272352941175
678.6875,0.11196912647058824
678.8125,0.11199939705882356
678.90625,0.1117874411764706
679.0,0.11225996764705887
679.09375,0.11209685882352939
679.1875,0.11261299411764708
679.3125,0.11289116764705881
679.40625,0.11250991764705881
679.5,0.11263112647058823
679.59375,0.11260425588235295
679.6875,0.11299205882352939
679.8125,0.11277028235294123
679.90625,0.11367450000000001
680.0,0.11349320882352942
680.09375,0.11362923529411766
680.1875,0.11333039411764705
680.3125,0.11372342941176472
680.40625,0.11369179411764707
680.5,0.11345287352941176
680.59375,0.1138321764705882
680.6875,0.11364965882352945
680.8125,0.11337601176470585
680.90625,0.11329552941176473
681.0,0.11297013529411765
681.09375,0.11238107058823531
681.1875,0.11269276764705882
681.3125,0.11163808529411766
681.40625,0.1121219705882353
681.5,0.11200372058823527
681.59375,0.11177053823529412
681.6875,0.11183622647058823
681.8125,0.11135928529411766
681.90625,0.11120372941176468
682.0,0.11227640588235296
682.09375,0.11183033529411765
682.1875,0.11145010294117644
682.3125,0.11202054705882353
682.40625,0.11167590294117648
682.5,0.11149959705882354
682.59375,0.1120847323529412
682.6875,0.1116503705882353
682.8125,0.11186616176470587
682.90625,0.11194410588235292
683.0,0.11248877941176469
683.09375,0.11197038235294118
683.1875,0.11198969999999997
683.3125,0.11237185000000002
683.40625,0.11236266764705884
683.5,0.11186628823529411
683.59375,0.1120510323529412
683.6875,0.11166160588235291
683.8125,0.1117263
683.90625,0.11233914117647059
684.0,0.11232605
684.09375,0.11148185588235292
684.1875,0.11163095882352939
684.3125,0.11214284117647064
684.40625,0.11180760294117645
684.5,0.11156360000000001
684.59375,0.11194501176470585
684.6875,0.11174107647058823
684.8125,0.11197419999999998
684.90625,0.11144526764705881
685.0,0.11142147352941177
685.09375,0.11180694411764705
685.1875,0.11164325588235292
685.3125,0.1121901705882353
685.40625,0.11184520588235297
685.5,0.11200847352941178
685.59375,0.11115270294117649
685.6875,0.111598
685.8125,0.11149986470588236
685.90625,0.11182156470588236
686.0,0.11167637647058823
686.09375,0.11172191470588232
686.1875,0.11137273823529414
686.3125,0.11164959117647058
686.40625,0.11137622352941179
686.5,0.11205790294117646
686.59375,0.1116027
686.6875,0.11203811470588239
686.8125,0.11209539411764706
686.90625,0.11166887647058824
687.0,0.11152744411764708
687.09375,0.11246126764705881
687.1875,0.11163355882352942
687.3125,0.1116098558823529
687.40625,0.11131380294117647
687.5,0.11177576470588234
687.59375,0.11167550294117645
687.6875,0.1116323205882353
687.8125,0.11145091470588235
687.90625,0.11172536764705882
688.0,0.11228994999999999
688.09375,0.11206259411764707
688.1875,0.11224053529411765
688.3125,0.11173945294117649
688.40625,0.11173383823529413
688.5,0.11223997058823529
688.59375,0.11186223823529413
688.6875,0.11247703823529412
688.8125,0.11215170588235295
688.90625,0.11310514411764705
689.0,0.11311379117647058
689.09375,0.11363602058823528
689.1875,0.11410137352941174
689.3125,0.11474687352941178
689.40625,0.1142735882352941
689.5,0.1153210382352941
689.59375,0.11587134705882352
689.6875,0.11627317647058821
689.8125,0.11545171176470591
689.90625,0.11584827941176472
690.0,0.11539012352941179
690.09375,0.11472274705882353
690.1875,0.11396455588235298
690.3125,0.11375687941176471
690.40625,0.11362640882352941
690.5,0.11358433235294117
690.59375,0.11307642352941177
690.6875,0.11196933529411765
690.8125,0.11178522647058825
690.90625,0.11210677352941179
691.0,0.11152872941176473
691.09375,0.11176221470588235
691.1875,0.11172684705882353
691.3125,0.11207418235294117
691.40625,0.11187842647058824
691.5,0.11227315294117644
691.59375,0.1118842794117647
691.6875,0.11176523235294117
691.8125,0.1117192088235294
691.90625,0.11207905294117648
692.0,0.11172554411764708
692.09375,0.11223893235294119
692.1875,0.11195342941176471
692.3125,0.1127704088235294
692.40625,0.11333322352941179
692.5,0.11303001764705885
692.59375,0.11318631470588236
692.6875,0.11397817647058822
692.8125,0.11411932941176471
692.90625,0.11418959117647062
693.0,0.11414879411764707
693.09375,0.11376423529411764
693.1875,0.11304795588235295
693.3125,0.1129519617647059
693.40625,0.11294899705882354
693.5,0.11248463235294118
693.59375,0.11221897941176472
693.6875,0.11194011176470586
693.8125,0.11202514117647057
693.90625,0.11210599411764705
694.0,0.11188649999999997
694.09375,0.1120256205882353
694.1875,0.11179879999999998
694.3125,0.11242039705882349
694.40625,0.11215858235294118
694.5,0.11199389999999998
694.59375,0.11202105882352938
694.6875,0.1124728264705882
694.8125,0.11229249411764705
694.90625,0.11207880882352944
695.0,0.11216458235294116
695.09375,0.11105878529411763
695.1875,0.11201396764705884
695.3125,0.11160898529411765
695.40625,0.11172421764705881
695.5,0.11178807647058822
695.59375,0.11165748823529413
695.6875,0.11163928823529409
695.8125,0.11142871176470591
695.90625,0.11204387647058825
696.0,0.11164511764705887
696.09375,0.11174372058823533
696.1875,0.11155828529411765
696.3125,0.11209106176470586
696.40625,0.11144752352941177
696.5,0.11172612058823528
696.59375,0.11125065882352944
696.6875,0.11138919411764706
696.8125,0.11120953529411766
696.90625,0.11160703823529412
697.0,0.11231112647058823
697.09375,0.1122483823529412
697.1875,0.11197299117647061
697.3125,0.11168340882352942
697.40625,0.11200814411764705
697.5,0.1122497205882353
697.59375,0.11178449999999997
697.6875,0.11196392647058821
697.8125,0.11202090294117646
697.90625,0.11148100294117647
698.0,0.11182874411764704
698.09375,0.11183141764705884
698.1875,0.11204376176470587
698.3125,0.11204785
698.40625,0.11193134411764706
698.5,0.1125170411764706
698.59375,0.11240251764705882
698.6875,0.11475366470588237
698.8125,0.11591922058823528
698.90625,0.1154124794117647
699.0,0.11738216764705885
699.09375,0.12075120882352944
699.1875,0.12283089705882351
699.3125,0.12397658823529412
699.40625,0.1237635205882353
699.5,0.12485454705882351
699.59375,0.12509124705882355
699.6875,0.12176289117647059
699.8125,0.11991664999999999
699.90625,0.11967473235294118
700.0,0.11836608235294117
700.09375,0.11519840882352944
700.1875,0.11389398529411765
700.3125,0.11270369705882351
700.40625,0.11253944411764708
700.5,0.11266538235294118
700.59375,0.1120437
700.6875,0.11161615882352942
700.8125,0.11152810588235296
700.90625,0.11159205000000001
701.0,0.11158273823529413
701.09375,0.11163139117647058
701.1875,0.11207502058823529
701.3125,0.11204487647058824
701.40625,0.11131561176470589
701.5,0.11188430294117649
701.59375,0.11159225
701.6875,0.11185491176470587
701.8125,0.11204354999999999
701.90625,0.11202325000000002
702.0,0.11181772647058826
702.09375,0.11172652647058824
702.1875,0.11264544117647057
702.3125,0.11289697352941176
702.40625,0.11307627647058825
702.5,0.11318121176470587
702.59375,0.11438841470588235
702.6875,0.11477791764705883
702.8125,0.11464926176470588
702.90625,0.11489643823529411
703.0,0.11559638529411762
703.09375,0.11508520294117645
703.1875,0.1145852794117647
703.3125,0.11421477941176468
703.40625,0.11478992352941177
703.5,0.11435397058823532
703.59375,0.11438877647058822
703.6875,0.11300260294117648
703.8125,0.11343179117647058
703.90625,0.11330670294117645
704.0,0.11322650294117648
704.09375,0.11300238823529413
704.1875,0.11271065000000002
704.3125,0.11260659999999999
704.40625,0.1125067676470588
704.5,0.11263655
704.59375,0.11225729411764707
704.6875,0.11190815
704.8125,0.11190743235294114
704.90625,0.11205159411764709
705.0,0.11162793529411764
705.09375,0.11183733823529411
705.1875,0.11165925
705.3125,0.11186431470588233
705.40625,0.11193896764705884
705.5,0.1123730823529412
705.59375,0.1127721235294118
705.6875,0.1141992794117647
705.8125,0.1159672970588235
705.90625,0.11683850588235296
706.0,0.11765594411764708
706.09375,0.12016927647058821
706.1875,0.12230200000000002
706.3125,0.12194915882352941
706.40625,0.12308937647058821
706.5,0.12339912058823528
706.59375,0.12267304705882352
706.6875,0.12051597058823527
706.8125,0.11880001764705883
706.90625,0.11837715588235295
707.0,0.1165656176470588
707.09375,0.11445280882352941
707.1875,0.11266862058823532
707.3125,0.11219244117647059
707.40625,0.11225238529411766
707.5,0.11195027058823531
707.59375,0.11183036176470587
707.6875,0.11209848235294118
707.8125,0.11212639117647057
707.90625,0.11176288529411765
708.0,0.11165177941176468
708.09375,0.11243966764705882
708.1875,0.11220200294117648
708.3125,0.11223433823529412
708.40625,0.11218902941176473
708.5,0.11277905588235296
708.59375,0.11287384117647059
708.6875,0.11442804705882355
708.8125,0.11493710882352944
708.90625,0.11543627352941178
709.0,0.11613970882352939
709.09375,0.11759518529411762
709.1875,0.11772463529411764
709.3125,0.11848300882352941
709.40625,0.11784152352941177
709.5,0.11870543235294116
709.59375,0.11820113235294118
709.6875,0.11610354411764703
709.8125,0.11534309999999996
709.90625,0.11495843235294119
710.0,0.11407956470588235
710.09375,0.11360493529411765
710.1875,0.11261047352941175
710.3125,0.11194699411764708
710.40625,0.11182625294117648
710.5,0.1117469117647059
710.59375,0.11243982058823529
710.6875,0.11185214411764707
710.8125,0.11187045294117648
710.90625,0.11125472941176469
711.0,0.11197422941176473
711.09375,0.11185941470588234
711.1875,0.11188842647058823
711.3125,0.11144373235294117
711.40625,0.11162192352941176
711.5,0.11211251176470588
711.59375,0.11141958529411763
711.6875,0.1116221088235294
711.8125,0.11130339411764706
711.90625,0.11210467058823527
712.0,0.1111463911764706
712.09375,0.11159000588235296
712.1875,0.11145157941176471
712.3125,0.11161606470588237
712.40625,0.11146616470588235
712.5,0.11157750882352943
712.59375,0.11173022941176469
712.6875,0.1117427705882353
712.8125,0.1123308235294118
712.90625,0.11196147058823527
713.0,0.11180823529411764
713.09375,0.11175558823529412
713.1875,0.11178816764705882
713.3125,0.11153101176470587
713.40625,0.11184773235294115
713.5,0.11163139117647057
713.59375,0.11162033235294115
713.6875,0.11150644705882351
713.8125,0.11124163529411764
713.90625,0.11187792647058825
714.0,0.11197819705882352
714.09375,0.11132340882352941
714.1875,0.1108565088235294
714.3125,0.11157521764705884
714.40625,0.11121228529411765
714.5,0.11151257352941177
714.59375,0.1115835235294118
714.6875,0.1120958
714.8125,0.11121445
714.90625,0.11174642647058822
715.0,0.11159573529411765
715.09375,0.11134936764705883
715.1875,0.11205027352941177
715.3125,0.11165460294117648
715.40625,0.11165204999999999
715.5,0.11163013529411762
715.59375,0.11145224411764705
715.6875,0.11167788823529413
715.8125,0.1117860705882353
715.90625,0.11157750882352942
716.0,0.11189966176470588
716.09375,0.11132617647058823
716.1875,0.11201972647058826
716.3125,0.11190682941176473
716.40625,0.11183979705882352
716.5,0.11275394411764705
716.59375,0.1118911294117647
716.6875,0.11204384705882352
716.8125,0.11246799117647058
716.90625,0.11262526176470591
717.0,0.11243120882352942
717.09375,0.11242491470588237
717.1875,0.11270448235294118
717.3125,0.11253304705882355
717.40625,0.11260386176470588
717.5,0.11250016176470588
717.59375,0.1122530382352941
717.6875,0.11209553235294122
717.8125,0.11184784117647058
717.90625,0.11145965294117648
718.0,0.11179750588235295
718.09375,0.1120500705882353
718.1875,0.11204772352941174
718.3125,0.11206054705882354
718.40625,0.11220880294117645
718.5,0.1122073558823529
718.59375,0.11202717941176472
718.6875,0.11233422058823528
718.8125,0.11220137647058823
718.90625,0.11208974705882353
719.0,0.1120412676470588
719.09375,0.11122106764705884
719.1875,0.11208730294117648
719.3125,0.1119764294117647
719.40625,0.11130720588235299
719.5,0.1120746088235294
719.59375,0.11202114705882352
719.6875,0.11116535294117648
719.8125,0.11162465882352941
719.90625,0.11145905588235296
720.0,0.11158895882352941
720.09375,0.11157666764705886
720.1875,0.1116471823529412
720.3125,0.11165295588235295
720.40625,0.11146815588235294
720.5,0.11179032647058822
720.59375,0.11191509411764707
720.6875,0.11135452647058822
720.8125,0.11116570882352943
720.90625,0.11132840000000001
721.0,0.11106194705882352
721.09375,0.1120896794117647
721.1875,0.11185277647058822
721.3125,0.11141181470588236
721.40625,0.11135474117647058
721.5,0.11157195
721.59375,0.11156534411764706
721.6875,0.1113906117647059
721.8125,0.11126070588235296
721.90625,0.11123959705882354
722.0,0.11107746470588234
722.09375,0.11125535882352941
722.1875,0.1116419323529412
722.3125,0.11201549411764702
722.40625,0.11120979117647058
722.5,0.11165195882352939
722.59375,0.11112850000000002
722.6875,0.11208856764705884
722.8125,0.11151705000000003
722.90625,0.1121468382352941
723.0,0.1115216411764706
723.09375,0.11101071176470588
723.1875,0.11178263529411764
723.3125,0.11145778823529412
723.40625,0.11146485000000002
723.5,0.11169613823529412
723.59375,0.11189725294117647
723.6875,0.11295946470588236
723.8125,0.11297241470588236
723.90625,0.11351913823529411
724.0,0.11433813235294119
724.09375,0.11488760588235297
724.1875,0.1150010205882353
724.3125,0.11440871470588238
724.40625,0.11477515294117645
724.5,0.11487115000000002
724.59375,0.11404779411764704
724.6875,0.11285906470588236
724.8125,0.11315896470588234
724.90625,0.11222285882352942
725.0,0.11176414411764707
725.09375,0.11209655882352938
725.1875,0.11171935588235293
725.3125,0.11202227941176472
725.40625,0.11181868823529412
725.5,0.11140742352941174
725.59375,0.11131621176470587
725.6875,0.11177311764705881
725.8125,0.11200826470588236
725.90625,0.11169525000000001
726.0,0.1114840911764706
726.09375,0.1116378117647059
726.1875,0.11209905000000002
726.3125,0.11177816764705883
726.40625,0.11181964411764705
726.5,0.11194933235294119
726.59375,0.11186904411764702
726.6875,0.1117370205882353
726.8125,0.11227298235294116
726.90625,0.1115125205882353
727.0,0.11173527647058823
727.09375,0.1119695205882353
727.1875,0.11172870882352942
727.3125,0.11268742647058824
727.40625,0.11242135294117646
727.5,0.11296502647058823
727.59375,0.11364883529411768
727.6875,0.11405461176470594
727.8125,0.11455008529411764
727.90625,0.1140503705882353
728.0,0.11457807647058825
728.09375,0.11401597352941172
728.1875,0.11372054411764707
728.3125,0.11404730882352938
728.40625,0.11340280294117648
728.5,0.11324843529411763
728.59375,0.11294451176470587
728.6875,0.1136310617647059
728.8125,0.11300992058823528
728.90625,0.11387197647058825
729.0,0.11376036470588236
729.09375,0.1144783411764706
729.1875,0.11484099411764703
729.3125,0.1159729205882353
729.40625,0.11592796176470588
729.5,0.11626942647058824
729.59375,0.11671738235294117
729.6875,0.11625525
729.8125,0.11627591176470592
729.90625,0.1158674529411765
730.0,0.11487150588235291
730.09375,0.11434098823529412
730.1875,0.11339055294117645
730.3125,0.11350419705882353
730.40625,0.11357282941176472
730.5,0.11284029411764705
730.59375,0.11240210294117647
730.6875,0.11197393823529411
730.8125,0.11175077941176473
730.90625,0.11166956764705882
731.0,0.11158312058823532
731.09375,0.11128684411764705
731.1875,0.11181492647058822
731.3125,0.11179516176470589
731.40625,0.1120803117647059
731.5,0.11183661470588237
731.59375,0.11126568529411765
731.6875,0.11164667058823531
731.8125,0.11136594411764705
731.90625,0.11095826764705884
732.0,0.11149043529411765
732.09375,0.11154158823529411
732.1875,0.11124857647058824
732.3125,0.1113015794117647
732.40625,0.11189765
732.5,0.11135492647058823
732.59375,0.11134375588235296
732.6875,0.11139916764705882
732.8125,0.11215326470588233
732.90625,0.11187187352941179
733.0,0.11147957352941178
733.09375,0.11162432647058824
733.1875,0.11177910294117646
733.3125,0.11137303823529411
733.40625,0.11136538235294118
733.5,0.11148269999999999
733.59375,0.11150926764705885
733.6875,0.11152558235294119
733.8125,0.11107878823529412
733.90625,0.1115136
734.0,0.11114103823529413
734.09375,0.1116271558823529
734.1875,0.11190497058823526
734.3125,0.11158162352941173
734.40625,0.11117115294117647
734.5,0.11161755294117646
734.59375,0.1117646823529412
734.6875,0.11151212058823529
734.8125,0.11179882352941174
734.90625,0.11167080000000003
735.0,0.11175063235294116
735.09375,0.11179609999999998
735.1875,0.11173386764705885
735.3125,0.11103554705882353
735.40625,0.1116333176470588
735.5,0.11187270588235293
735.59375,0.11156774705882354
735.6875,0.11172140882352939
735.8125,0.11118091176470589
735.90625,0.11105962941176471
736.0,0.1115979411764706
736.09375,0.11129804411764707
736.1875,0.11116417352941177
736.3125,0.11161754705882353
736.40625,0.1113585823529412
736.5,0.11145827647058824
736.59375,0.11142664705882355
736.6875,0.11127836470588236
736.8125,0.11171893823529411
736.90625,0.11141892647058822
737.0,0.11190575588235295
737.09375,0.11134606176470589
737.1875,0.11122823823529414
737.3125,0.11146406470588233
737.40625,0.11203006176470585
737.5,0.11171416764705883
737.59375,0.11161544117647058
737.6875,0.11156657352941178
737.8125,0.11173050294117644
737.90625,0.11162853529411766
738.0,0.11204928823529411
738.09375,0.11127606470588233
738.1875,0.11211872647058822
738.3125,0.11178129117647058
738.40625,0.11194745000000002
738.5,0.11197797647058827
738.59375,0.11167719117647061
738.6875,0.11211602647058821
738.8125,0.11184863235294118
738.90625,0.11247357941176468
739.0,0.11245444411764707
739.09375,0.11307735882352941
739.1875,0.11378916470588234
739.3125,0.11436132058823528
739.40625,0.11482362647058823
739.5,0.1156159088235294
739.59375,0.1166019617647059
739.6875,0.11793931176470587
739.8125,0.11820080000000001
739.90625,0.11795019117647057
740.0,0.11747863529411763
740.09375,0.1174570264705882
740.1875,0.11659727941176468
740.3125,0.11611637058823533
740.40625,0.11611786470588237
740.5,0.11525645882352943
740.59375,0.11414153529411765
740.6875,0.11329846764705885
740.8125,0.11291199117647058
740.90625,0.11239777352941174
741.0,0.11231354999999997
741.09375,0.1119813176470588
741.1875,0.11193388823529407
741.3125,0.11183592352941178
741.40625,0.11175791470588234
741.5,0.11207430294117646
741.59375,0.11243984705882352
741.6875,0.11176665294117648
741.8125,0.1116362617647059
741.90625,0.11158990588235296
742.0,0.11177181176470588
742.09375,0.1114559911764706
742.1875,0.11135928529411765
742.3125,0.1119467529411765
742.40625,0.11195002058823528
742.5,0.11089957647058822
742.59375,0.11147905588235293
742.6875,0.11223336470588234
742.8125,0.1114498294117647
742.90625,0.11156267941176472
743.0,0.1120540588235294
743.09375,0.11184115
743.1875,0.11134026764705884
743.3125,0.11143673823529412
743.40625,0.1117849911764706
743.5,0.11178793529411764
743.59375,0.1121275588235294
743.6875,0.11222624705882353
743.8125,0.11171073823529412
743.90625,0.11189455588235292
744.0,0.11170320882352941
744.09375,0.11144169117647056
744.1875,0.11171653823529411
744.3125,0.11130494411764703
744.40625,0.11150186176470588
744.5,0.11107852058823531
744.59375,0.11117447647058826
744.6875,0.11117955
744.8125,0.11128112647058824
744.90625,0.11161742941176471
745.0,0.1116841382352941
745.09375,0.11147124411764704
745.1875,0.11166590882352942
745.3125,0.11125445294117646
745.40625,0.11155676176470589
745.5,0.11178066176470589
745.59375,0.11162738823529413
745.6875,0.11169482647058822
745.8125,0.11153525294117646
745.90625,0.1112296205882353
746.0,0.11160339999999996
746.09375,0.11135537352941176
746.1875,0.11108206176470589
746.3125,0.11150262058823532
746.40625,0.1114228882352941
746.5,0.1114977588235294
746.59375,0.11139108823529409
746.6875,0.11151843529411763
746.8125,0.11209133235294119
746.90625,0.11176435000000001
747.0,0.11149290000000003
747.09375,0.11207478823529413
747.1875,0.1116366470588235
747.3125,0.11203459411764703
747.40625,0.11170380000000002
747.5,0.11238056176470589
747.59375,0.11173657647058825
747.6875,0.11170035
747.8125,0.11141872058823529
747.90625,0.11157417941176467
748.0,0.1117715588235294
748.09375,0.1117845411764706
748.1875,0.1122851470588235
748.3125,0.11217248529411761
748.40625,0.11230395000000003
748.5,0.11254683529411762
748.59375,0.11174396176470588
748.6875,0.11220524705882351
748.8125,0.11226237941176473
748.90625,0.11269031470588235
749.0,0.11201577352941174
749.09375,0.11175140294117647
749.1875,0.1121210705882353
749.3125,0.11148879117647059
749.40625,0.11172618235294118
749.5,0.11198471470588234
749.59375,0.11183525000000001
749.6875,0.11240518823529413
749.8125,0.11185213823529414
749.90625,0.11198682058823527
750.0,0.11192134117647055
750.09375,0.11157312352941179
750.1875,0.11205869117647058
750.3125,0.11235698235294118
750.40625,0.11208713529411765
750.5,0.1123009441176471
750.59375,0.11294458529411766
750.6875,0.11277395588235294
750.8125,0.1126250088235294
750.90625,0.11250958823529411
751.0,0.11210891176470587
751.09375,0.11205769705882354
751.1875,0.11171843235294115
751.3125,0.11173016470588236
751.40625,0.1117433617647059
751.5,0.1117218235294118
751.59375,0.1119545029411765
751.6875,0.11112871176470587
751.8125,0.11143277647058823
751.90625,0.11154158823529411
752.0,0.11135789117647057
752.09375,0.1111817794117647
752.1875,0.11133590882352942
752.3125,0.11149007647058823
752.40625,0.11157907941176472
752.5,0.11116436176470587
752.59375,0.1113732176470588
752.6875,0.11197654705882353
752.8125,0.11172530294117645
752.90625,0.11211196176470592
753.0,0.11213887058823532
753.09375,0.1120002088235294
753.1875,0.11203378529411766
753.3125,0.11218227058823527
753.40625,0.11187773235294117
753.5,0.11241842941176468
753.59375,0.11152911764705883
753.6875,0.11204030294117645
753.8125,0.11182295588235297
753.90625,0.11161021470588235
754.0,0.11180499117647057
754.09375,0.11183863235294118
754.1875,0.11191124999999999
754.3125,0.1111445911764706
754.40625,0.11137528235294118
754.5,0.11160829411764704
754.59375,0.11200993823529411
754.6875,0.1119381970588235
754.8125,0.11177124117647058
754.90625,0.11162517647058823
755.0,0.11119511764705883
755.09375,0.11127765
755.1875,0.11159069411764706
755.3125,0.1114707382352941
755.40625,0.11170371176470589
755.5,0.11153227941176469
755.59375,0.11192479117647058
755.6875,0.1113456205882353
755.8125,0.11139958823529415
755.90625,0.11118700294117648
756.0,0.11158942647058823
756.09375,0.1117102
756.1875,0.11179290588235292
756.3125,0.11115111470588235
756.40625,0.11140271470588237
756.5,0.11177453823529412
756.59375,0.11135985294117648
756.6875,0.11136990588235293
756.8125,0.11154041176470593
756.90625,0.11160841470588236
757.0,0.11135618823529411
757.09375,0.11174043529411765
757.1875,0.11127362941176468
757.3125,0.11154648529411765
757.40625,0.11202417058823529
757.5,0.11173041176470588
757.59375,0.11150184411764703
757.6875,0.11129425588235292
757.8125,0.11182247941176472
757.90625,0.11185412647058823
758.0,0.11147076470588235
758.09375,0.11139052352941178
758.1875,0.11138210882352942
758.3125,0.11165815294117645
758.40625,0.11136237352941177
758.5,0.11135540588235293
758.59375,0.11148872941176469
758.6875,0.1119040882352941
758.8125,0.11198870588235293
758.90625,0.11204430000000004
759.0,0.11176922352941177
759.09375,0.11168217058823529
759.1875,0.11180113823529411
759.3125,0.11222816764705881
759.40625,0.11140664411764707
759.5,0.11147257352941177
759.59375,0.1113809911764706
759.6875,0.11159513235294119
759.8125,0.11117336470588234
759.90625,0.11145895294117648
760.0,0.11139222941176471
760.09375,0.11087455000000002
760.1875,0.11196176176470585
760.3125,0.11186343529411766
760.40625,0.1113222764705882
760.5,0.1116549411764706
760.59375,0.1118072088235294
760.6875,0.11177915000000001
760.8125,0.11166707058823531
760.90625,0.11168115882352943
761.0,0.11197336470588237
761.09375,0.11180949117647059
761.1875,0.11235585000000003
761.3125,0.11190593235294116
761.40625,0.11213223823529414
761.5,0.11257001470588233
761.59375,0.11240173529411764
761.6875,0.11203583235294118
761.8125,0.11207090294117646
761.90625,0.11220041176470588
762.0,0.11157327647058823
762.09375,0.11136336176470588
762.1875,0.11155066470588233
762.3125,0.11164745294117646
762.40625,0.11223147352941176
762.5,0.11175530882352941
762.59375,0.11125230000000001
762.6875,0.11133074411764707
762.8125,0.11170612352941178
762.90625,0.1114103705882353
763.0,0.11139751764705884
763.09375,0.11137751470588232
763.1875,0.11173227058823529
763.3125,0.11171128235294119
763.40625,0.11171512058823528
763.5,0.11158394411764702
763.59375,0.11221766176470586
763.6875,0.11175999999999998
763.8125,0.11154966764705886
763.90625,0.11131795588235292
764.0,0.11137042352941173
764.09375,0.11140048529411763
764.1875,0.11120586470588237
764.3125,0.1114808588235294
764.40625,0.11132932647058824
764.5,0.11136079117647057
764.59375,0.11168568823529412
764.6875,0.11153143529411766
764.8125,0.11156412058823531
764.90625,0.11108503823529416
765.0,0.11130912941176473
765.09375,0.1108856411764706
765.1875,0.11168013235294116
765.3125,0.11178364117647059
765.40625,0.11118541764705885
765.5,0.11108326470588235
765.59375,0.11141754705882354
765.6875,0.1115516
765.8125,0.11099854411764708
765.90625,0.11188100294117646
766.0,0.11129255294117649
766.09375,0.11148536764705883
766.1875,0.11135873235294119
766.3125,0.11132347941176471
766.40625,0.11177513823529414
766.5,0.1117961588235294
766.59375,0.11173966470588234
766.6875,0.11139950294117648
766.8125,0.11163566764705884
766.90625,0.1115638823529412
767.0,0.11084809705882354
767.09375,0.11153363235294118
767.1875,0.1109885382352941
767.3125,0.11193584705882353
767.40625,0.11113559117647057
767.5,0.1112960588235294
767.59375,0.11159595294117645
767.6875,0.11176479999999997
767.8125,0.11124968823529412
767.90625,0.11111720588235297
768.0,0.11140292941176473
768.09375,0.11100848529411766
768.1875,0.11121812058823533
768.3125,0.11132477352941175
768.40625,0.11067948235294119
768.5,0.11119427647058826
768.59375,0.11172936764705883
768.6875,0.11184063235294117
768.8125,0.11173498235294119
768.90625,0.11092393235294117
769.0,0.11184869117647057
769.09375,0.11110781470588234
769.1875,0.11184102941176473
769.3125,0.11168945
769.40625,0.11164956764705881
769.5,0.11127809117647058
769.59375,0.1110465117647059
769.6875,0.11129668529411763
769.8125,0.11113514117647058
769.90625,0.11147929705882353
770.0,0.11140154117647061
770.09375,0.11090378235294118
770.1875,0.11119844117647057
770.3125,0.1113410794117647
770.40625,0.11132147058823531
770.5,0.11116207647058822
770.59375,0.11105079705882356
770.6875,0.11165635
770.8125,0.1113856205882353
770.90625,0.11189466176470587
771.0,0.1119586117647059
771.09375,0.11157180588235292
771.1875,0.1115126382352941
771.3125,0.11159484411764704
771.40625,0.11124203235294117
771.5,0.11138384411764705
771.59375,0.11135750882352942
771.6875,0.11141264999999999
771.8125,0.1113138294117647
771.90625,0.1115206294117647
772.0,0.11170743823529412
772.09375,0.11265259117647057
772.1875,0.11339602352941176
772.3125,0.11348828235294117
772.40625,0.11376253529411766
772.5,0.11404427647058824
772.59375,0.11483021176470588
772.6875,0.11491389411764706
772.8125,0.11490274117647058
772.90625,0.11447743529411768
773.0,0.1143231764705882
773.09375,0.11382598235294114
773.1875,0.11265177647058822
773.3125,0.1124561911764706
773.40625,0.11254837058823533
773.5,0.11241390000000001
773.59375,0.11154360294117649
773.6875,0.11187602352941178
773.8125,0.11163643235294114
773.90625,0.1110880705882353
774.0,0.11116580588235296
774.09375,0.11121694117647057
774.1875,0.11172188823529412
774.3125,0.11113764999999998
774.40625,0.11160594705882355
774.5,0.11155606764705885
774.59375,0.11150329705882354
774.6875,0.11185244117647056
774.8125,0.11135351176470587
774.90625,0.11121283235294119
775.0,0.11133039117647056
775.09375,0.11128750588235295
775.1875,0.11141925882352942
775.3125,0.1118317117647059
775.40625,0.11155696764705884
775.5,0.11133249117647055
775.59375,0.11189938235294115
775.6875,0.11117511176470589
775.8125,0.11138763235294118
775.90625,0.11140068823529413
776.0,0.1108648529411765
776.09375,0.11130014411764703
776.1875,0.11152653529411767
776.3125,0.11144376764705882
776.40625,0.1116497794117647
776.5,0.11119189705882351
776.59375,0.11154429411764706
776.6875,0.11172341176470588
776.8125,0.11205619705882353
776.90625,0.11208078529411766
777.0,0.11306621764705883
777.09375,0.11350757352941178
777.1875,0.11531277941176472
777.3125,0.11549286470588234
777.40625,0.11585215000000001
777.5,0.11629687647058824
777.59375,0.11722959117647058
777.6875,0.11655195000000002
777.8125,0.11634009411764705
777.90625,0.11594279411764706
778.0,0.11571693823529411
778.09375,0.11429349705882354
778.1875,0.11367569411764708
778.3125,0.11273322647058821
778.40625,0.11244363823529412
778.5,0.1122562470588235
778.59375,0.11156411470588232
778.6875,0.11160173823529412
778.8125,0.11148484999999997
778.90625,0.1116687176470588
779.0,0.11118481176470588
779.09375,0.1119772294117647
779.1875,0.11172425588235294
779.3125,0.11160753529411764
779.40625,0.11125248235294118
779.5,0.1117501176470588
779.59375,0.11128233235294116
779.6875,0.11175351176470591
779.8125,0.11102521764705885
779.90625,0.11161901176470589
780.0,0.11140000588235294
780.09375,0.11132928529411763
780.1875,0.11116819411764708
780.3125,0.11154564999999997
780.40625,0.11110413823529411
780.5,0.11123108823529411
780.59375,0.11178093529411763
780.6875,0.11161225588235292
780.8125,0.1113589323529412
780.90625,0.1117813823529412
781.0,0.11157553529411764
781.09375,0.11131904117647058
781.1875,0.11149362352941175
781.3125,0.11138586176470588
781.40625,0.11130383823529413
781.5,0.11108704999999998
781.59375,0.11128887352941177
781.6875,0.11128271764705881
781.8125,0.11145088823529414
781.90625,0.1115567794117647
782.0,0.11093103529411763
782.09375,0.1119133205882353
782.1875,0.11185389117647057
782.3125,0.11128437058823529
782.40625,0.11158502941176471
782.5,0.11132242352941178
782.59375,0.11165947352941175
782.6875,0.11195560588235294
782.8125,0.11135195588235292
782.90625,0.11146653235294118
783.0,0.11118649117647057
783.09375,0.11160601176470589
783.1875,0.11192189117647058
783.3125,0.11214170294117648
783.40625,0.11197088823529412
783.5,0.11184764411764705
783.59375,0.11196425882352938
783.6875,0.11247264705882351
783.8125,0.11242205294117648
783.90625,0.11292156764705884
784.0,0.11315403235294116
784.09375,0.11288813235294119
784.1875,0.11305260294117646
784.3125,0.1127164676470588
784.40625,0.11289998235294119
784.5,0.1129477029411765
784.59375,0.11280807647058823
784.6875,0.11160798823529411
784.8125,0.11221150882352941
784.90625,0.11197765000000001
785.0,0.11177074705882352
785.09375,0.11110672647058827
785.1875,0.11121283235294119
785.3125,0.11198134705882354
785.40625,0.11099582941176474
785.5,0.11122207352941177
785.59375,0.1114487235294118
785.6875,0.11100952941176469
785.8125,0.11119739411764706
785.90625,0.11138700294117646
786.0,0.11120028529411766
786.09375,0.11165171470588234
786.1875,0.11133327352941179
786.3125,0.11106822058823529
786.40625,0.11147614117647059
786.5,0.11142538235294118
786.59375,0.11126151470588232
786.6875,0.1115254
786.8125,0.11171422058823528
786.90625,0.11147620000000001
787.0,0.11167545
787.09375,0.11137042647058824
787.1875,0.11143641470588236
787.3125,0.11136871176470586
787.40625,0.11171215588235293
787.5,0.11157191764705882
787.59375,0.11160060000000001
787.6875,0.1112576705882353
787.8125,0.11091371764705882
787.90625,0.11147544999999999
788.0,0.11141268823529413
788.09375,0.11093609705882355
788.1875,0.11148164117647055
788.3125,0.11117865
788.40625,0.11140141470588237
788.5,0.11124235882352941
788.59375,0.11131414117647055
788.6875,0.11147962647058826
788.8125,0.11122592941176472
788.90625,0.11181718235294119
789.0,0.11134778529411762
789.09375,0.11215254999999999
789.1875,0.11136264411764707
789.3125,0.11139295
789.40625,0.1110177941176471
789.5,0.11148080000000002
789.59375,0.1114016294117647
789.6875,0.11136354705882352
789.8125,0.1112671705882353
789.90625,0.11125090000000001
790.0,0.11101784999999997
790.09375,0.11098448529411765
790.1875,0.11132879705882352
790.3125,0.11090140294117647
790.40625,0.1108552235294118
790.5,0.11133017647058824
790.59375,0.11159384705882357
790.6875,0.1109858970588235
790.8125,0.11165727647058823
790.90625,0.1111987529411765
791.0,0.11160640588235295
791.09375,0.11112834705882353
791.1875,0.11171918823529411
791.3125,0.1114182382352941
791.40625,0.11182863235294122
791.5,0.1109799117647059
791.59375,0.11099574411764707
791.6875,0.11179574117647062
791.8125,0.11151520882352936
791.90625,0.11140595294117647
792.0,0.11125616764705883
792.09375,0.11124200000000001
792.1875,0.11146707352941174
792.3125,0.11160606764705883
792.40625,0.1110729382352941
792.5,0.1116203382352941
792.59375,0.11142567941176469
792.6875,0.1114748205882353
792.8125,0.11168942058823532
792.90625,0.11151789705882352
793.0,0.1119448294117647
793.09375,0.1114835823529412
793.1875,0.11184532647058822
793.3125,0.11145250588235295
793.40625,0.11142301470588235
793.5,0.11127851764705883
793.59375,0.11070426470588235
793.6875,0.11147824999999999
793.8125,0.11124944705882356
793.90625,0.11139752647058822
794.0,0.11124775882352943
794.09375,0.11134804117647057
794.1875,0.11125622941176469
794.3125,0.11092075588235295
794.40625,0.11185505588235292
794.5,0.11169137058823528
794.59375,0.11173665882352941
794.6875,0.11103157352941177
794.8125,0.11161802941176471
794.90625,0.11113006176470586
795.0,0.1111610205882353
795.09375,0.1111927382352941
795.1875,0.11140315882352941
795.3125,0.1117782588235294
795.40625,0.11180372352941179
795.5,0.1112160176470588
795.59375,0.11172566470588235
795.6875,0.11131548529411765
795.8125,0.11113251764705881
795.90625,0.11157696176470587
796.0,0.11114862058823531
796.09375,0.11143665000000003
796.1875,0.11112999705882352
796.3125,0.11103923235294115
796.40625,0.11078889999999998
796.5,0.11139487352941173
796.59375,0.11146705000000001
796.6875,0.11131549411764706
796.8125,0.11122941764705879
796.90625,0.11135210882352943
797.0,0.11176787352941177
797.09375,0.11130539705882354
797.1875,0.11174669411764707
797.3125,0.11158177058823532
797.40625,0.11143424117647059
797.5,0.11144763823529408
797.59375,0.11105755588235293
797.6875,0.11110891764705878
797.8125,0.11156135588235297
797.90625,0.11130080294117649
798.0,0.1109662735294118
798.09375,0.11158507941176467
798.1875,0.11169142352941179
798.3125,0.11106743823529415
798.40625,0.1115392088235294
798.5,0.11099710294117648
798.59375,0.1114184205882353
798.6875,0.1110780970588235
798.8125,0.11108281764705884
798.90625,0.11129005294117647
799.0,0.11163383235294119
799.09375,0.1115510794117647
799.1875,0.11116655294117647
799.3125,0.11216095294117649
799.40625,0.1115025705882353
799.5,0.11119165882352942
799.59375,0.11108095882352942
799.6875,0.11080539411764703
799.8125,0.11121157058823529
799.90625,0.11131264117647056
800.0,0.11142195588235294
