Imaginary time (a.u.), E_T (Hartee energy units), Number of walkers
0.00000000e+00, -2.90120000e+00, 1.02400000e+03
1.00000000e-01, -2.92320844e+00, 1.04500000e+03
2.00000000e-01, -2.95657026e+00, 1.06900000e+03
3.00000000e-01, -2.98617894e+00, 1.09700000e+03
4.00000000e-01, -3.00929779e+00, 1.11400000e+03
5.00000000e-01, -3.03257052e+00, 1.13600000e+03
6.00000000e-01, -3.05057584e+00, 1.14800000e+03
7.00000000e-01, -3.06770782e+00, 1.16100000e+03
8.00000000e-01, -3.07793995e+00, 1.16000000e+03
9.00000000e-01, -3.08505636e+00, 1.15500000e+03
1.00000000e+00, -3.08915058e+00, 1.14600000e+03
1.10000000e+00, -3.09683630e+00, 1.14800000e+03
1.20000000e+00, -3.10310999e+00, 1.14800000e+03
1.30000000e+00, -3.10580277e+00, 1.14100000e+03
1.40000000e+00, -3.10558965e+00, 1.12900000e+03
1.50000000e+00, -3.10547451e+00, 1.11900000e+03
1.60000000e+00, -3.10563490e+00, 1.11100000e+03
1.70000000e+00, -3.10757233e+00, 1.10800000e+03
1.80000000e+00, -3.10331585e+00, 1.09200000e+03
1.90000000e+00, -3.10116074e+00, 1.08200000e+03
2.00000000e+00, -3.10045436e+00, 1.07600000e+03
2.10000000e+00, -3.09385056e+00, 1.05800000e+03
2.20000000e+00, -3.09044458e+00, 1.04800000e+03
2.30000000e+00, -3.08575189e+00, 1.03600000e+03
2.40000000e+00, -3.08410177e+00, 1.03100000e+03
2.50000000e+00, -3.08084294e+00, 1.02300000e+03
2.60000000e+00, -3.07687944e+00, 1.01400000e+03
2.70000000e+00, -3.07119435e+00, 1.00200000e+03
2.80000000e+00, -3.06621626e+00, 9.92000000e+02
2.90000000e+00, -3.06405263e+00, 9.88000000e+02
3.00000000e+00, -3.06384448e+00, 9.88000000e+02
3.10000000e+00, -3.06515919e+00, 9.91000000e+02
3.20000000e+00, -3.05994233e+00, 9.81000000e+02
3.30000000e+00, -3.05142042e+00, 9.65000000e+02
3.40000000e+00, -3.04514840e+00, 9.54000000e+02
3.50000000e+00, -3.04024533e+00, 9.46000000e+02
3.60000000e+00, -3.03413874e+00, 9.36000000e+02
3.70000000e+00, -3.03000469e+00, 9.30000000e+02
3.80000000e+00, -3.02578774e+00, 9.24000000e+02
3.90000000e+00, -3.02039985e+00, 9.16000000e+02
4.00000000e+00, -3.01433803e+00, 9.07000000e+02
4.10000000e+00, -3.00924403e+00, 9.00000000e+02
4.20000000e+00, -3.00795915e+00, 9.00000000e+02
4.30000000e+00, -3.00055609e+00, 8.89000000e+02
4.40000000e+00, -2.99410031e+00, 8.80000000e+02
4.50000000e+00, -2.99264766e+00, 8.80000000e+02
4.60000000e+00, -2.98951983e+00, 8.77000000e+02
4.70000000e+00, -2.98923217e+00, 8.79000000e+02
4.80000000e+00, -2.98672119e+00, 8.77000000e+02
4.90000000e+00, -2.98478357e+00, 8.76000000e+02
5.00000000e+00, -2.98171739e+00, 8.73000000e+02
5.10000000e+00, -2.97921241e+00, 8.71000000e+02
5.20000000e+00, -2.97555685e+00, 8.67000000e+02
5.30000000e+00, -2.97245148e+00, 8.64000000e+02
5.40000000e+00, -2.96642120e+00, 8.56000000e+02
5.50000000e+00, -2.95969669e+00, 8.47000000e+02
5.60000000e+00, -2.95818710e+00, 8.47000000e+02
5.70000000e+00, -2.95611380e+00, 8.46000000e+02
5.80000000e+00, -2.95582746e+00, 8.48000000e+02
5.90000000e+00, -2.95734558e+00, 8.53000000e+02
6.00000000e+00, -2.94533425e+00, 8.35000000e+02
6.10000000e+00, -2.94919194e+00, 8.44000000e+02
6.20000000e+00, -2.94542645e+00, 8.40000000e+02
6.30000000e+00, -2.94223146e+00, 8.37000000e+02
6.40000000e+00, -2.94379728e+00, 8.42000000e+02
6.50000000e+00, -2.94245372e+00, 8.42000000e+02
6.60000000e+00, -2.94113084e+00, 8.42000000e+02
6.70000000e+00, -2.94396758e+00, 8.49000000e+02
6.80000000e+00, -2.94568197e+00, 8.54000000e+02
6.90000000e+00, -2.94099622e+00, 8.48000000e+02
7.00000000e+00, -2.93980148e+00, 8.48000000e+02
7.10000000e+00, -2.94506795e+00, 8.59000000e+02
7.20000000e+00, -2.94805561e+00, 8.66000000e+02
7.30000000e+00, -2.94878562e+00, 8.69000000e+02
7.40000000e+00, -2.94261853e+00, 8.60000000e+02
7.50000000e+00, -2.93926845e+00, 8.56000000e+02
7.60000000e+00, -2.94230404e+00, 8.63000000e+02
7.70000000e+00, -2.94017460e+00, 8.61000000e+02
7.80000000e+00, -2.93512112e+00, 8.54000000e+02
7.90000000e+00, -2.93234989e+00, 8.51000000e+02
8.00000000e+00, -2.92838235e+00, 8.46000000e+02
8.10000000e+00, -2.92969562e+00, 8.50000000e+02
8.20000000e+00, -2.93162498e+00, 8.55000000e+02
8.30000000e+00, -2.92949881e+00, 8.53000000e+02
8.40000000e+00, -2.93029642e+00, 8.56000000e+02
8.50000000e+00, -2.93286336e+00, 8.62000000e+02
8.60000000e+00, -2.93198983e+00, 8.62000000e+02
8.70000000e+00, -2.93401831e+00, 8.67000000e+02
8.80000000e+00, -2.93950191e+00, 8.78000000e+02
8.90000000e+00, -2.94103539e+00, 8.82000000e+02
9.00000000e+00, -2.94032998e+00, 8.82000000e+02
9.10000000e+00, -2.93849733e+00, 8.80000000e+02
9.20000000e+00, -2.94006253e+00, 8.84000000e+02
9.30000000e+00, -2.93712485e+00, 8.80000000e+02
9.40000000e+00, -2.93813922e+00, 8.83000000e+02
9.50000000e+00, -2.93349780e+00, 8.76000000e+02
9.60000000e+00, -2.93394127e+00, 8.78000000e+02
9.70000000e+00, -2.93440128e+00, 8.80000000e+02
9.80000000e+00, -2.93826726e+00, 8.88000000e+02
9.90000000e+00, -2.93540388e+00, 8.84000000e+02
1.00000000e+01, -2.93534645e+00, 8.85000000e+02
1.01000000e+01, -2.92905374e+00, 8.75000000e+02
1.02000000e+01, -2.93067320e+00, 8.79000000e+02
1.03000000e+01, -2.92374440e+00, 8.68000000e+02
1.04000000e+01, -2.92535605e+00, 8.72000000e+02
1.05000000e+01, -2.92641479e+00, 8.75000000e+02
1.06000000e+01, -2.92919580e+00, 8.81000000e+02
1.07000000e+01, -2.92460954e+00, 8.74000000e+02
1.08000000e+01, -2.92512308e+00, 8.76000000e+02
1.09000000e+01, -2.92565042e+00, 8.78000000e+02
1.10000000e+01, -2.92334223e+00, 8.75000000e+02
1.11000000e+01, -2.92387682e+00, 8.77000000e+02
1.12000000e+01, -2.91927873e+00, 8.70000000e+02
1.13000000e+01, -2.91635287e+00, 8.66000000e+02
1.14000000e+01, -2.91282107e+00, 8.61000000e+02
1.15000000e+01, -2.91158361e+00, 8.60000000e+02
1.16000000e+01, -2.90976371e+00, 8.58000000e+02
1.17000000e+01, -2.90793672e+00, 8.56000000e+02
1.18000000e+01, -2.90960326e+00, 8.60000000e+02
1.19000000e+01, -2.91012562e+00, 8.62000000e+02
1.20000000e+01, -2.91181649e+00, 8.66000000e+02
1.21000000e+01, -2.91121703e+00, 8.66000000e+02
1.22000000e+01, -2.91636311e+00, 8.76000000e+02
1.23000000e+01, -2.91980009e+00, 8.83000000e+02
1.24000000e+01, -2.92268029e+00, 8.89000000e+02
1.25000000e+01, -2.92445054e+00, 8.93000000e+02
1.26000000e+01, -2.92231530e+00, 8.90000000e+02
1.27000000e+01, -2.92241435e+00, 8.91000000e+02
1.28000000e+01, -2.91971025e+00, 8.87000000e+02
1.29000000e+01, -2.91867784e+00, 8.86000000e+02
1.30000000e+01, -2.92214351e+00, 8.93000000e+02
1.31000000e+01, -2.91833745e+00, 8.87000000e+02
1.32000000e+01, -2.91618582e+00, 8.84000000e+02
1.33000000e+01, -2.91741274e+00, 8.87000000e+02
1.34000000e+01, -2.91752533e+00, 8.88000000e+02
1.35000000e+01, -2.91708211e+00, 8.88000000e+02
1.36000000e+01, -2.91888936e+00, 8.92000000e+02
1.37000000e+01, -2.91622199e+00, 8.88000000e+02
1.38000000e+01, -2.91747481e+00, 8.91000000e+02
1.39000000e+01, -2.91929630e+00, 8.95000000e+02
1.40000000e+01, -2.92057044e+00, 8.98000000e+02
1.41000000e+01, -2.92627372e+00, 9.09000000e+02
1.42000000e+01, -2.92428249e+00, 9.06000000e+02
1.43000000e+01, -2.92558780e+00, 9.09000000e+02
1.44000000e+01, -2.92744959e+00, 9.13000000e+02
1.45000000e+01, -2.92931934e+00, 9.17000000e+02
1.46000000e+01, -2.92738211e+00, 9.14000000e+02
1.47000000e+01, -2.92980192e+00, 9.19000000e+02
1.48000000e+01, -2.92951461e+00, 9.19000000e+02
1.49000000e+01, -2.92759436e+00, 9.16000000e+02
1.50000000e+01, -2.92511175e+00, 9.12000000e+02
1.51000000e+01, -2.92589999e+00, 9.14000000e+02
1.52000000e+01, -2.92614897e+00, 9.15000000e+02
1.53000000e+01, -2.92640292e+00, 9.16000000e+02
1.54000000e+01, -2.92392800e+00, 9.12000000e+02
1.55000000e+01, -2.92908154e+00, 9.22000000e+02
1.56000000e+01, -2.93044383e+00, 9.25000000e+02
1.57000000e+01, -2.92965312e+00, 9.24000000e+02
1.58000000e+01, -2.92668842e+00, 9.19000000e+02
1.59000000e+01, -2.92967492e+00, 9.25000000e+02
1.60000000e+01, -2.92834750e+00, 9.23000000e+02
1.61000000e+01, -2.93079836e+00, 9.28000000e+02
1.62000000e+01, -2.92678045e+00, 9.21000000e+02
1.63000000e+01, -2.92489513e+00, 9.18000000e+02
1.64000000e+01, -2.92843085e+00, 9.25000000e+02
1.65000000e+01, -2.92548313e+00, 9.20000000e+02
1.66000000e+01, -2.92739966e+00, 9.24000000e+02
1.67000000e+01, -2.92878233e+00, 9.27000000e+02
1.68000000e+01, -2.92963296e+00, 9.29000000e+02
1.69000000e+01, -2.93156201e+00, 9.33000000e+02
1.70000000e+01, -2.93615687e+00, 9.42000000e+02
1.71000000e+01, -2.93704158e+00, 9.44000000e+02
1.72000000e+01, -2.93154821e+00, 9.34000000e+02
1.73000000e+01, -2.92866587e+00, 9.29000000e+02
1.74000000e+01, -2.93006506e+00, 9.32000000e+02
1.75000000e+01, -2.93039889e+00, 9.33000000e+02
1.76000000e+01, -2.92966455e+00, 9.32000000e+02
1.77000000e+01, -2.92785245e+00, 9.29000000e+02
1.78000000e+01, -2.93193168e+00, 9.37000000e+02
1.79000000e+01, -2.93228223e+00, 9.38000000e+02
1.80000000e+01, -2.93210344e+00, 9.38000000e+02
1.81000000e+01, -2.93511376e+00, 9.44000000e+02
1.82000000e+01, -2.93069922e+00, 9.36000000e+02
1.83000000e+01, -2.93371241e+00, 9.42000000e+02
1.84000000e+01, -2.93460961e+00, 9.44000000e+02
1.85000000e+01, -2.93919738e+00, 9.53000000e+02
1.86000000e+01, -2.93432290e+00, 9.44000000e+02
1.87000000e+01, -2.93575444e+00, 9.47000000e+02
1.88000000e+01, -2.93349243e+00, 9.43000000e+02
1.89000000e+01, -2.92800581e+00, 9.33000000e+02
1.90000000e+01, -2.93102748e+00, 9.39000000e+02
1.91000000e+01, -2.93245675e+00, 9.42000000e+02
1.92000000e+01, -2.93123763e+00, 9.40000000e+02
1.93000000e+01, -2.93107650e+00, 9.40000000e+02
1.94000000e+01, -2.93197890e+00, 9.42000000e+02
1.95000000e+01, -2.93235541e+00, 9.43000000e+02
1.96000000e+01, -2.93061172e+00, 9.40000000e+02
1.97000000e+01, -2.92938891e+00, 9.38000000e+02
1.98000000e+01, -2.93029142e+00, 9.40000000e+02
1.99000000e+01, -2.92907021e+00, 9.38000000e+02
2.00000000e+01, -2.93050599e+00, 9.41000000e+02
2.01000000e+01, -2.93035396e+00, 9.41000000e+02
2.02000000e+01, -2.92860609e+00, 9.38000000e+02
2.03000000e+01, -2.92898042e+00, 9.39000000e+02
2.04000000e+01, -2.92775930e+00, 9.37000000e+02
2.05000000e+01, -2.92438781e+00, 9.31000000e+02
2.06000000e+01, -2.92475020e+00, 9.32000000e+02
2.07000000e+01, -2.93309011e+00, 9.48000000e+02
2.08000000e+01, -2.93190516e+00, 9.46000000e+02
2.09000000e+01, -2.93018357e+00, 9.43000000e+02
2.10000000e+01, -2.92844996e+00, 9.40000000e+02
2.11000000e+01, -2.93042579e+00, 9.44000000e+02
2.12000000e+01, -2.93028923e+00, 9.44000000e+02
2.13000000e+01, -2.92589796e+00, 9.36000000e+02
2.14000000e+01, -2.92574270e+00, 9.36000000e+02
2.15000000e+01, -2.92984352e+00, 9.44000000e+02
2.16000000e+01, -2.93235081e+00, 9.49000000e+02
2.17000000e+01, -2.93064653e+00, 9.46000000e+02
2.18000000e+01, -2.93367985e+00, 9.52000000e+02
2.19000000e+01, -2.93879173e+00, 9.62000000e+02
2.20000000e+01, -2.93609776e+00, 9.57000000e+02
2.21000000e+01, -2.93912288e+00, 9.63000000e+02
2.22000000e+01, -2.94059279e+00, 9.66000000e+02
2.23000000e+01, -2.94412500e+00, 9.73000000e+02
2.24000000e+01, -2.94764788e+00, 9.80000000e+02
2.25000000e+01, -2.94658133e+00, 9.78000000e+02
2.26000000e+01, -2.94396910e+00, 9.73000000e+02
2.27000000e+01, -2.94442216e+00, 9.74000000e+02
2.28000000e+01, -2.94641332e+00, 9.78000000e+02
2.29000000e+01, -2.94840535e+00, 9.82000000e+02
2.30000000e+01, -2.94938298e+00, 9.84000000e+02
2.31000000e+01, -2.95036315e+00, 9.86000000e+02
2.32000000e+01, -2.94677028e+00, 9.79000000e+02
2.33000000e+01, -2.94416437e+00, 9.74000000e+02
2.34000000e+01, -2.94564551e+00, 9.77000000e+02
2.35000000e+01, -2.94200050e+00, 9.70000000e+02
2.36000000e+01, -2.94706394e+00, 9.80000000e+02
2.37000000e+01, -2.94548818e+00, 9.77000000e+02
2.38000000e+01, -2.94748199e+00, 9.81000000e+02
2.39000000e+01, -2.94488676e+00, 9.76000000e+02
2.40000000e+01, -2.94790030e+00, 9.82000000e+02
2.41000000e+01, -2.94989498e+00, 9.86000000e+02
2.42000000e+01, -2.94681384e+00, 9.80000000e+02
2.43000000e+01, -2.94626163e+00, 9.79000000e+02
2.44000000e+01, -2.94876509e+00, 9.84000000e+02
2.45000000e+01, -2.94923991e+00, 9.85000000e+02
2.46000000e+01, -2.94717447e+00, 9.81000000e+02
2.47000000e+01, -2.94611507e+00, 9.79000000e+02
2.48000000e+01, -2.94607211e+00, 9.79000000e+02
2.49000000e+01, -2.94192674e+00, 9.71000000e+02
2.50000000e+01, -2.94443570e+00, 9.76000000e+02
2.51000000e+01, -2.94541066e+00, 9.78000000e+02
2.52000000e+01, -2.94177474e+00, 9.71000000e+02
2.53000000e+01, -2.93601976e+00, 9.60000000e+02
2.54000000e+01, -2.93905436e+00, 9.66000000e+02
2.55000000e+01, -2.93950360e+00, 9.67000000e+02
2.56000000e+01, -2.93788420e+00, 9.64000000e+02
2.57000000e+01, -2.93729365e+00, 9.63000000e+02
2.58000000e+01, -2.93409529e+00, 9.57000000e+02
2.59000000e+01, -2.93609562e+00, 9.61000000e+02
2.60000000e+01, -2.93809567e+00, 9.65000000e+02
2.61000000e+01, -2.93647033e+00, 9.62000000e+02
2.62000000e+01, -2.93639611e+00, 9.62000000e+02
2.63000000e+01, -2.93684166e+00, 9.63000000e+02
2.64000000e+01, -2.93884252e+00, 9.67000000e+02
2.65000000e+01, -2.93722537e+00, 9.64000000e+02
2.66000000e+01, -2.93559775e+00, 9.61000000e+02
2.67000000e+01, -2.93500241e+00, 9.60000000e+02
2.68000000e+01, -2.92969032e+00, 9.50000000e+02
2.69000000e+01, -2.93169546e+00, 9.54000000e+02
2.70000000e+01, -2.92845335e+00, 9.48000000e+02
2.71000000e+01, -2.92940820e+00, 9.50000000e+02
2.72000000e+01, -2.93141440e+00, 9.54000000e+02
2.73000000e+01, -2.93027852e+00, 9.52000000e+02
2.74000000e+01, -2.92808316e+00, 9.48000000e+02
2.75000000e+01, -2.93114030e+00, 9.54000000e+02
2.76000000e+01, -2.93574955e+00, 9.63000000e+02
2.77000000e+01, -2.93360008e+00, 9.59000000e+02
2.78000000e+01, -2.93300286e+00, 9.58000000e+02
2.79000000e+01, -2.93083364e+00, 9.54000000e+02
2.80000000e+01, -2.92969993e+00, 9.52000000e+02
2.81000000e+01, -2.93327511e+00, 9.59000000e+02
2.82000000e+01, -2.93006253e+00, 9.53000000e+02
2.83000000e+01, -2.93311526e+00, 9.59000000e+02
2.84000000e+01, -2.93304130e+00, 9.59000000e+02
2.85000000e+01, -2.93504876e+00, 9.63000000e+02
2.86000000e+01, -2.93394311e+00, 9.61000000e+02
2.87000000e+01, -2.93178806e+00, 9.57000000e+02
2.88000000e+01, -2.93275533e+00, 9.59000000e+02
2.89000000e+01, -2.93580116e+00, 9.65000000e+02
2.90000000e+01, -2.93522112e+00, 9.64000000e+02
2.91000000e+01, -2.93307890e+00, 9.60000000e+02
2.92000000e+01, -2.93456882e+00, 9.63000000e+02
2.93000000e+01, -2.93294420e+00, 9.60000000e+02
2.94000000e+01, -2.93339510e+00, 9.61000000e+02
2.95000000e+01, -2.93228578e+00, 9.59000000e+02
2.96000000e+01, -2.93377651e+00, 9.62000000e+02
2.97000000e+01, -2.93110554e+00, 9.57000000e+02
2.98000000e+01, -2.93050881e+00, 9.56000000e+02
2.99000000e+01, -2.92623161e+00, 9.48000000e+02
3.00000000e+01, -2.93191059e+00, 9.59000000e+02
3.01000000e+01, -2.92922712e+00, 9.54000000e+02
3.02000000e+01, -2.93071875e+00, 9.57000000e+02
3.03000000e+01, -2.93168983e+00, 9.59000000e+02
3.04000000e+01, -2.93162074e+00, 9.59000000e+02
3.05000000e+01, -2.92841380e+00, 9.53000000e+02
3.06000000e+01, -2.92833488e+00, 9.53000000e+02
3.07000000e+01, -2.92878061e+00, 9.54000000e+02
3.08000000e+01, -2.92975103e+00, 9.56000000e+02
3.09000000e+01, -2.92967798e+00, 9.56000000e+02
3.10000000e+01, -2.93738945e+00, 9.71000000e+02
3.11000000e+01, -2.93734198e+00, 9.71000000e+02
3.12000000e+01, -2.93729467e+00, 9.71000000e+02
3.13000000e+01, -2.93621658e+00, 9.69000000e+02
3.14000000e+01, -2.93976526e+00, 9.76000000e+02
3.15000000e+01, -2.94126111e+00, 9.79000000e+02
3.16000000e+01, -2.94071643e+00, 9.78000000e+02
3.17000000e+01, -2.93965769e+00, 9.76000000e+02
3.18000000e+01, -2.94013141e+00, 9.77000000e+02
3.19000000e+01, -2.93907023e+00, 9.75000000e+02
3.20000000e+01, -2.93903055e+00, 9.75000000e+02
3.21000000e+01, -2.93642029e+00, 9.70000000e+02
3.22000000e+01, -2.93791685e+00, 9.73000000e+02
3.23000000e+01, -2.93787435e+00, 9.73000000e+02
3.24000000e+01, -2.93680317e+00, 9.71000000e+02
3.25000000e+01, -2.93778657e+00, 9.73000000e+02
3.26000000e+01, -2.93568472e+00, 9.69000000e+02
3.27000000e+01, -2.93201134e+00, 9.62000000e+02
3.28000000e+01, -2.93195210e+00, 9.62000000e+02
3.29000000e+01, -2.93293147e+00, 9.64000000e+02
3.30000000e+01, -2.93339415e+00, 9.65000000e+02
3.31000000e+01, -2.93437537e+00, 9.67000000e+02
3.32000000e+01, -2.93380735e+00, 9.66000000e+02
3.33000000e+01, -2.93220004e+00, 9.63000000e+02
3.34000000e+01, -2.93162395e+00, 9.62000000e+02
3.35000000e+01, -2.93519104e+00, 9.69000000e+02
3.36000000e+01, -2.93617497e+00, 9.71000000e+02
3.37000000e+01, -2.94074422e+00, 9.80000000e+02
3.38000000e+01, -2.94122419e+00, 9.81000000e+02
3.39000000e+01, -2.94626685e+00, 9.91000000e+02
3.40000000e+01, -2.94625352e+00, 9.91000000e+02
3.41000000e+01, -2.94775156e+00, 9.94000000e+02
3.42000000e+01, -2.94673569e+00, 9.92000000e+02
3.43000000e+01, -2.94419741e+00, 9.87000000e+02
3.44000000e+01, -2.94771192e+00, 9.94000000e+02
3.45000000e+01, -2.94920995e+00, 9.97000000e+02
3.46000000e+01, -2.94769882e+00, 9.94000000e+02
3.47000000e+01, -2.94769012e+00, 9.94000000e+02
3.48000000e+01, -2.94617011e+00, 9.91000000e+02
3.49000000e+01, -2.94362803e+00, 9.86000000e+02
3.50000000e+01, -2.94055594e+00, 9.80000000e+02
3.51000000e+01, -2.94256374e+00, 9.84000000e+02
3.52000000e+01, -2.94910321e+00, 9.97000000e+02
3.53000000e+01, -2.94507072e+00, 9.89000000e+02
3.54000000e+01, -2.94556036e+00, 9.90000000e+02
3.55000000e+01, -2.94806506e+00, 9.95000000e+02
3.56000000e+01, -2.94755523e+00, 9.94000000e+02
3.57000000e+01, -2.94198274e+00, 9.83000000e+02
3.58000000e+01, -2.94651572e+00, 9.92000000e+02
3.59000000e+01, -2.94801431e+00, 9.95000000e+02
3.60000000e+01, -2.94901135e+00, 9.97000000e+02
3.61000000e+01, -2.94649334e+00, 9.92000000e+02
3.62000000e+01, -2.94547314e+00, 9.90000000e+02
3.63000000e+01, -2.94848041e+00, 9.96000000e+02
3.64000000e+01, -2.94797263e+00, 9.95000000e+02
3.65000000e+01, -2.94595165e+00, 9.91000000e+02
3.66000000e+01, -2.94745060e+00, 9.94000000e+02
3.67000000e+01, -2.94340195e+00, 9.86000000e+02
3.68000000e+01, -2.94236751e+00, 9.84000000e+02
3.69000000e+01, -2.94639420e+00, 9.92000000e+02
3.70000000e+01, -2.94131742e+00, 9.82000000e+02
3.71000000e+01, -2.94332540e+00, 9.86000000e+02
3.72000000e+01, -2.93974404e+00, 9.79000000e+02
3.73000000e+01, -2.93715534e+00, 9.74000000e+02
3.74000000e+01, -2.93454668e+00, 9.69000000e+02
3.75000000e+01, -2.93398832e+00, 9.68000000e+02
3.76000000e+01, -2.93031612e+00, 9.61000000e+02
3.77000000e+01, -2.93078324e+00, 9.62000000e+02
3.78000000e+01, -2.93228868e+00, 9.65000000e+02
3.79000000e+01, -2.93016471e+00, 9.61000000e+02
3.80000000e+01, -2.93011223e+00, 9.61000000e+02
3.81000000e+01, -2.92745164e+00, 9.56000000e+02
3.82000000e+01, -2.92582108e+00, 9.53000000e+02
3.83000000e+01, -2.92628246e+00, 9.54000000e+02
3.84000000e+01, -2.92253869e+00, 9.47000000e+02
3.85000000e+01, -2.92352264e+00, 9.49000000e+02
3.86000000e+01, -2.92817414e+00, 9.58000000e+02
3.87000000e+01, -2.93072138e+00, 9.63000000e+02
3.88000000e+01, -2.93326201e+00, 9.68000000e+02
3.89000000e+01, -2.93322010e+00, 9.68000000e+02
3.90000000e+01, -2.93266150e+00, 9.67000000e+02
3.91000000e+01, -2.93519713e+00, 9.72000000e+02
3.92000000e+01, -2.93464615e+00, 9.71000000e+02
3.93000000e+01, -2.93099102e+00, 9.64000000e+02
3.94000000e+01, -2.93301477e+00, 9.68000000e+02
3.95000000e+01, -2.93708875e+00, 9.76000000e+02
3.96000000e+01, -2.94063127e+00, 9.83000000e+02
3.97000000e+01, -2.93857088e+00, 9.79000000e+02
3.98000000e+01, -2.93854415e+00, 9.79000000e+02
3.99000000e+01, -2.93595731e+00, 9.74000000e+02
4.00000000e+01, -2.93541069e+00, 9.73000000e+02
4.01000000e+01, -2.93486234e+00, 9.72000000e+02
4.02000000e+01, -2.93379706e+00, 9.70000000e+02
4.03000000e+01, -2.93272718e+00, 9.68000000e+02
4.04000000e+01, -2.93217004e+00, 9.67000000e+02
4.05000000e+01, -2.93367729e+00, 9.70000000e+02
4.06000000e+01, -2.93825748e+00, 9.79000000e+02
4.07000000e+01, -2.93772035e+00, 9.78000000e+02
4.08000000e+01, -2.93871447e+00, 9.80000000e+02
4.09000000e+01, -2.93868972e+00, 9.80000000e+02
4.10000000e+01, -2.93713206e+00, 9.77000000e+02
4.11000000e+01, -2.93195960e+00, 9.67000000e+02
4.12000000e+01, -2.93449744e+00, 9.72000000e+02
4.13000000e+01, -2.93446297e+00, 9.72000000e+02
4.14000000e+01, -2.94005525e+00, 9.83000000e+02
