All days with start 2021-01-01,theoretical curve (leap day corrected) (deg),fitted curve (deg),Days when measured alpha,alpha naive min (deg),uncertainty_pm (deg)
0.0,80.77263222183005,79.918520015756,57.0,66.5,1.5
1.0,80.70019584002738,79.8409703760489,58.0,66.0,1.5
2.0,80.62094699763377,79.75670970037613,63.0,64.5,1.5
3.0,80.53490914565668,79.66576299830629,68.0,62.0,1.5
4.0,80.44210774408076,79.56815726389996,79.0,58.0,1.5
5.0,80.34257025433374,79.46392146769756,241.0,50.0,1.5
6.0,80.23632613116023,79.35308654812056,267.0,59.5,1.5
7.0,80.12340681390559,79.23568540228854,284.0,65.0,1.5
8.0,80.00384571721251,79.11175287625497,289.0,67.0,1.5
9.0,79.87767822113304,78.9813257546645,295.0,69.0,1.5
10.0,79.74494166065911,78.8444427498348,326.0,77.5,1.5
11.0,79.60567531467449,78.70114449026633,338.0,80.0,1.5
12.0,79.45992039433153,78.55147350858331,370.0,80.25,0.5
13.0,79.30772003085615,78.39547422890946,385.0,77.5,0.5
14.0,79.14911926278455,78.2331929536825,386.0,77.0,0.5
15.0,78.98416502263566,78.064677849911,389.0,76.75,0.5
16.0,78.812906123023,77.8899789348778,392.0,75.75,0.5
17.0,78.63539324221023,77.7091480612943,394.0,75.0,0.5
18.0,78.45167890911472,77.52223890191001,395.0,74.75,0.5
19.0,78.2618174877633,77.32930693358182,405.0,71.75,0.5
20.0,78.06586516120512,77.13040942080775,418.0,67.375,0.5
21.0,77.86387991488618,76.92560539873024,423.0,65.375,0.5
22.0,77.6559215194905,76.7149556556138,428.0,63.5,0.5
23.0,77.442051513253,76.4985227148023,429.0,63.25,0.5
24.0,77.22233318374938,76.27637081616137,436.0,60.5,0.5
25.0,76.99683154916826,76.04856589701116,437.0,60.0,0.5
26.0,76.76561333907128,75.8151755725554,438.0,59.75,0.5
27.0,76.52874697464674,75.57626911581244,441.0,58.625,0.5
28.0,76.28630254846271,75.3319174370541,444.0,57.375,0.5
29.0,76.03835180372545,75.08219306275882,472.0,46.75,0.5
30.0,75.78496811304944,74.82717011408474,477.0,45.0,0.5
31.0,75.52622645674535,74.56692428486983,498.0,39.0,0.5
32.0,75.262203400632,74.30153281916495,512.0,36.0,0.5
33.0,74.99297707337942,74.03107448830697,520.0,35.0,0.5
34.0,74.71862714338931,73.75562956753849,528.0,34.5,0.5
35.0,74.43923479521978,73.47527981218113,529.0,34.5,0.5
36.0,74.15488270556165,73.19010843336966,530.0,34.25,0.5
37.0,73.86565501877305,72.90020007335391,531.0,34.25,0.5
38.0,73.57163732197974,72.60564078037596,532.0,34.25,0.5
39.0,73.27291661974846,72.30651798313001,536.0,34.25,0.5
40.0,72.96958130834096,72.00292046481243,550.0,34.75,0.5
41.0,72.6617211495561,71.69493833677,551.0,35.0,0.5
42.0,72.34942724416784,71.3826630117536,553.0,35.25,0.5
43.0,72.03279200496712,71.06618717678603,564.0,36.75,0.5
44.0,71.71190912941539,70.74560476565124,577.0,39.75,0.5
45.0,71.38687357191803,70.42101093101373,581.0,40.75,0.5
46.0,71.05778151572582,70.09250201617613,590.0,43.75,0.5
47.0,70.72473034447279,69.7601755264833,593.0,44.25,0.5
48.0,70.38781861335876,69.42413010038166,594.0,44.5,0.5
49.0,70.04714601998538,69.08446548014211,598.0,46.0,0.5
50.0,69.7028133748539,68.74128248225527,599.0,46.25,0.5
51.0,69.35492257153383,68.39468296750805,624.0,55.25,0.5
52.0,69.00357655651086,68.04476981075008,625.0,56.0,0.5
53.0,68.64887929872349,67.6916468703593,646.0,64.25,0.5
54.0,68.29093575879678,67.33541895741554,673.0,73.25,0.5
55.0,67.929851857983,66.97619180459127,687.0,77.0,0.5
56.0,67.56573444681763,66.614072034769,688.0,77.25,0.5
57.0,67.19869127350077,66.2491671293943,,,
58.0,66.82883095201254,65.88158539657401,,,
59.0,66.45626292997254,65.51143593892915,,,
60.0,66.08109745625255,65.1388286212119,,,
61.0,65.70344554835206,64.76387403769652,,,
62.0,65.32341895954649,64.38668347935362,,,
63.0,64.94113014581745,64.00736890081764,,,
64.0,64.5566922325754,63.626042887157446,,,
65.0,64.17021898118388,63.24281862045974,,,
66.0,63.7818247552957,62.85780984623522,,,
67.0,63.39162448701099,62.47113083965762,,,
68.0,62.99973364286685,62.08289637164545,,,
69.0,62.60626818966898,61.693221674796646,,,
70.0,62.21134456017523,61.302222409186136,,,
71.0,61.81507961864127,60.910014628036606,,,
72.0,61.417590626238606,60.51671474327247,,,
73.0,61.01899520635505,60.12243949096748,,,
74.0,60.61941130978815,59.72730589669602,,,
75.0,60.21895717984158,59.331431240798594,,,
76.0,59.81775131733507,58.93493302357156,,,
77.0,59.41591244553814,58.53792893039171,,,
78.0,59.013559475037894,58.14053679678579,,,
79.0,58.610811468551546,57.742874573455566,,,
80.0,58.20778760569383,57.34506029126865,,,
81.0,57.80460714770977,56.947212026225515,,,
82.0,57.40138940218345,56.549447864413146,,,
83.0,56.998253687732905,56.15188586695571,,,
84.0,56.59531929870188,55.75464403497256,,,
85.0,56.19270546985868,55.357840274554164,,,
86.0,55.7905313411127,54.96159236176615,,,
87.0,55.38891592225898,54.566017907691965,,,
88.0,54.987978057761346,54.17123432352451,,,
89.0,54.587836391584354,53.77735878571711,,,
90.0,54.1886093320847,53.384508201204184,,,
91.0,53.79041501697224,52.9927991727018,,,
92.0,53.39337127835114,52.6023479640987,,,
93.0,52.99759560785147,52.21327046594771,,,
94.0,52.603205121861556,51.82568216106812,,,
95.0,52.21031652687133,51.439698090268976,,,
96.0,51.819046084937035,51.0554328182036,,,
97.0,51.429509579277365,50.673000399365456,,,
98.0,51.04182228001138,50.29251434423541,,,
99.0,50.65609891004822,49.91408758559049,,,
100.0,50.27245361113876,49.537832444984076,,,
101.0,49.890999910099204,49.16386059940754,,,
102.0,49.511850685216686,48.792283048143204,,,
103.0,49.13511813284678,48.42321007981841,,,
104.0,48.760913734212764,48.05675123967055,,,
105.0,48.38934822241656,47.693015297032765,,,
106.0,48.02053154967105,47.33211021304987,,,
107.0,47.654572854763366,46.974143108634266,,,
108.0,47.29158043075905,46.61922023267114,,,
109.0,46.93166169295635,46.267446930482514,,,
110.0,46.57492314710031,45.91892761255957,,,
111.0,46.22147035786601,45.57376572357232,,,
112.0,45.87140791762033,45.23206371166604,,,
113.0,45.524839415471284,44.89392299805338,,,
114.0,45.1818674066144,44.559443946911436,,,
115.0,44.84259338198498,44.2287258355924,,,
116.0,44.50711773822534,43.901866825156894,,,
117.0,44.17553974797571,43.57896393123859,,,
118.0,43.84795753049802,43.26011299524883,,,
119.0,43.5244680226407,42.94540865592975,,,
120.0,43.205166950153554,42.63494432126438,,,
121.0,42.89014879936101,42.32881214075203,,,
122.0,42.57950678920203,42.02710297805727,,,
123.0,42.273332843645186,41.72990638404047,,,
124.0,41.971717564486816,41.437310570178056,,,
125.0,41.67475020454056,41.1494023823803,,,
126.0,41.38251864122596,40.86626727521443,,,
127.0,41.09510935056416,40.587989286540676,,,
128.0,40.812607381588236,40.31465101256889,,,
129.0,40.535096331175836,40.046333583342914,,,
130.0,40.262658319311484,39.78311663866032,,,
131.0,39.99537396478601,39.52507830443433,,,
132.0,39.7333223613401,39.2722951695051,,,
133.0,39.476581054259235,39.024842262907285,,,
134.0,39.225226017426735,38.78279303160049,,,
135.0,38.979331630841926,38.54621931866937,,,
136.0,38.73897065860983,38.315191341999736,,,
137.0,38.50421422740921,38.08977767343706,,,
138.0,38.275131805444886,37.87004521843352,,,
139.0,38.051791181891126,37.6560591961897,,,
140.0,37.83425844683163,37.447883120296716,,,
141.0,37.622597971702476,37.24557877988468,,,
142.0,37.41687239024354,37.04920622128289,,,
143.0,37.217142579964175,36.85882373019744,,,
144.0,37.0234676441286,36.67448781441125,,,
145.0,36.83590489426626,36.49625318701195,,,
146.0,36.65450983321241,36.32417275015237,,,
147.0,36.479336138684005,36.15829757934851,,,
148.0,36.31043564739552,35.99867690831981,,,
149.0,36.14785833971969,35.8453581143759,,,
150.0,35.99165232489745,35.698386704354505,,,
151.0,35.84186382680171,35.557806301114475,,,
152.0,35.69853717025893,35.423658630588,,,
153.0,35.56171476793267,35.29598350939584,,,
154.0,35.43143710777305,35.174818833029306,,,
155.0,35.307742741035675,35.06020056460239,,,
156.0,35.1906682708737,34.95216272417754,,,
157.0,35.08024834150642,34.85073737866805,,,
158.0,34.976515627967395,34.755954632320254,,,
159.0,34.879500826435475,34.66784261777822,,,
160.0,34.78923264515125,34.586427487733616,,,
161.0,34.705737795921834,34.51173340716335,,,
162.0,34.62904098621642,34.44378254615704,,,
163.0,34.55916491185492,34.38259507333672,,,
164.0,34.496130250291955,34.328189149870525,,,
165.0,34.439955654498,34.280580924082294,,,
166.0,34.39065774743972,34.23978452665847,,,
167.0,34.34825111716093,34.205812066454,,,
168.0,34.312748312465786,34.17867362689829,,,
169.0,34.2841598392054,34.15837726300229,,,
170.0,34.262494157168945,34.14492899896771,,,
171.0,34.247757677580296,34.13833282639891,,,
172.0,34.23995476120085,34.13859070311821,,,
173.0,34.23908771703911,34.14570255258472,,,
174.0,34.24515680166739,34.15966626391714,,,
175.0,34.25816021914591,34.18047769252019,,,
176.0,34.27809412155422,34.20813066131487,,,
177.0,34.3049526101299,34.24261696257183,,,
178.0,34.33872773701408,34.28392636034756,,,
179.0,34.379409507603306,34.332046593522506,,,
180.0,34.42698588350716,34.386963379440346,,,
181.0,34.48144278611059,34.44866041814721,,,
182.0,34.54276410073997,34.51711939722978,,,
183.0,34.610931681431765,34.59231999725053,,,
184.0,34.685925356302114,34.67423989777885,,,
185.0,34.7677229335161,34.76285478401597,,,
186.0,34.856300207854616,34.85813835401193,,,
187.0,34.951630967877136,34.96006232647226,,,
188.0,35.053687003678036,35.06859644915224,,,
189.0,35.16243811523439,35.18370850783609,,,
190.0,35.277852121342654,35.30536433589858,,,
191.0,35.39989486914159,35.433527824446045,,,
192.0,35.52853024421866,35.56816093303396,,,
193.0,35.66372018129681,35.70922370095777,,,
194.0,35.80542467549867,35.856674259113746,,,
195.0,35.95360179418461,36.010468842426164,,,
196.0,36.10820768936125,36.17056180283738,,,
197.0,36.26919661065686,36.33690562285666,,,
198.0,36.43652091885956,36.50945092966393,,,
199.0,36.610131100014556,36.68814650976424,,,
200.0,36.78997578007612,36.872939324188565,,,
201.0,36.976001740110014,37.06377452423632,,,
202.0,37.16815393204179,37.26059546775518,,,
203.0,37.36637549494642,37.4633437359531,,,
204.0,37.570607771874364,37.671959150737756,,,
205.0,37.78079032720909,37.886379792578026,,,
206.0,37.996860964550976,38.106542018882536,,,
207.0,38.21875574512218,38.332380482889484,,,
208.0,38.4464090066872,38.56382815306236,,,
209.0,38.679753382983336,38.80081633298568,,,
210.0,38.9187198236555,39.04327468175491,,,
211.0,39.163237614689294,39.29113123485449,,,
212.0,39.41323439933643,39.54431242551771,,,
213.0,39.668636199526276,39.80274310656229,,,
214.0,39.92936743775715,40.06634657269484,,,
215.0,40.19535095946088,40.33504458327802,,,
216.0,40.466508055834126,40.60875738555319,,,
217.0,40.74275848712959,40.88740373831203,,,
218.0,41.024020506400205,41.170900936009886,,,
219.0,41.31021088368939,41.45916483331375,,,
220.0,41.601244930660165,41.7521098700776,,,
221.0,41.897036525655714,42.049649096737646,,,
222.0,42.19749813918426,42.35169420012003,,,
223.0,42.5025408598204,42.6581555296532,,,
224.0,42.812074420515444,42.968942123977264,,,
225.0,43.12600722530884,43.28396173794241,,,
226.0,43.44424637643298,43.603120869988366,,,
227.0,43.76669770180307,43.92632478989672,,,
228.0,44.09326578288416,44.25347756690806,,,
229.0,44.42385398292713,44.584482098195295,,,
230.0,44.758364475564896,44.919240137684994,,,
231.0,45.09669827376095,45.25765232521786,,,
232.0,45.438755259101136,45.59961821604016,,,
233.0,45.784434211420304,45.945036310616835,,,
234.0,46.13363283875505,46.29380408475773,,,
235.0,46.48624780761345,46.64581802004809,,,
236.0,46.84217477355324,47.00097363457399,,,
237.0,47.20130841205884,47.35916551393383,,,
238.0,47.56354244970871,47.720287342526525,,,
239.0,47.92876969562336,48.08423193510734,,,
240.0,48.29688207318476,48.450891268601666,,,
241.0,48.667770652018035,48.82015651416755,,,
242.0,49.041325680225654,49.19191806949746,,,
243.0,49.417436616864904,49.566065591349414,,,
244.0,49.79599216465856,49.94248802829833,,,
245.0,50.17688030292963,50.32107365369727,,,
246.0,50.55998832075016,50.70171009883935,,,
247.0,50.945202850294024,51.08428438630997,,,
248.0,51.33240990038441,51.46868296351997,,,
249.0,51.72149489022567,51.85479173640934,,,
250.0,52.11234268330951,52.24249610331172,,,
251.0,52.504837621485834,52.63168098896945,,,
252.0,52.898863559187795,53.02223087868936,,,
253.0,53.29430389780116,53.41402985262891,,,
254.0,53.6910416201677,53.80696162020249,,,
255.0,54.08895932521247,54.20090955459791,,,
256.0,54.48793926268469,54.59575672739259,,,
257.0,54.887863368001874,54.99138594325936,,,
258.0,55.288613297187084,55.387679774751355,,,
259.0,55.690070461888865,55.78452059715594,,,
260.0,56.092116064473316,56.181790623407004,,,
261.0,56.49463113317838,56.57937193904572,,,
262.0,56.897496557319364,56.97714653721885,,,
263.0,57.30059312253579,57.37499635370463,,,
264.0,57.703801546068796,57.772803301955534,,,
265.0,58.10700251205885,58.1704493081479,,,
266.0,58.51007670685327,58.56781634622759,,,
267.0,58.912904854312956,58.96478647294148,,,
268.0,59.31536775110818,59.36124186284444,,,
269.0,59.717346301992805,59.75706484327135,,,
270.0,60.11872155504638,60.15213792926375,,,
271.0,60.519374736874056,60.54634385844075,,,
272.0,60.91918728775342,60.93956562580382,,,
273.0,61.3180408967183,61.33168651846543,,,
274.0,61.71581753656887,61.72259015029067,,,
275.0,62.112399498797764,62.11216049644213,,,
276.0,62.507669428422005,62.5002819278174,,,
277.0,62.901510358710105,62.88683924536913,,,
278.0,63.293805745794536,63.27171771429758,,,
279.0,63.684439503158806,63.65480309810517,,,
280.0,64.07329603598942,64.03598169250331,,,
281.0,64.46026027538223,64.41514035916104,,,
282.0,64.84521771239312,64.79216655928604,,,
283.0,65.22805443192311,65.16694838702732,,,
284.0,65.60865714642769,65.53937460269023,,,
285.0,65.98691322944026,65.90933466575375,,,
286.0,66.36271074890034,66.27671876768025,,,
287.0,66.73593850027589,66.64141786450791,,,
288.0,67.10648603947068,67.00332370921635,,,
289.0,67.47424371550628,67.36232888385544,,,
290.0,67.8391027029697,67.7183268314285,,,
291.0,68.20095503421655,68.07121188751945,,,
292.0,68.55969363132036,68.42087931165537,,,
293.0,68.91521233775867,68.76722531839471,,,
294.0,69.26740594982657,69.11014710813198,,,
295.0,69.61617024776795,69.44954289760997,,,
296.0,69.96140202661597,69.78531195013021,,,
297.0,70.30299912673303,70.11735460545279,,,
298.0,70.64086046404144,70.44557230937666,,,
299.0,70.97488605993583,70.76986764299183,,,
300.0,71.30497707086839,71.0901443515943,,,
301.0,71.63103581759837,71.40630737325577,,,
302.0,71.95296581409683,71.7182628670389,,,
303.0,72.2706717960984,72.02591824085069,,,
304.0,72.58405974929167,72.32918217892471,,,
305.0,72.89303693713933,72.62796466892482,,,
306.0,73.19751192832055,72.92217702866185,,,
307.0,73.49739462378687,73.2117319324155,,,
308.0,73.7925962834241,73.49654343685371,,,
309.0,74.08302955231179,73.77652700654164,,,
310.0,74.36860848657304,74.0515995390328,,,
311.0,74.64924857880672,74.32167938953475,,,
312.0,74.92486678309442,74.58668639514242,,,
313.0,75.19538153957527,74.84654189863124,,,
314.0,75.46071279858066,75.10116877180367,,,
315.0,75.72078204432223,75.35049143838165,,,
316.0,75.9755123181261,75.59443589643861,,,
317.0,76.22482824120604,75.83292974036411,,,
318.0,76.46865603696928,76.06590218235469,,,
319.0,76.70692355284825,76.29328407342447,,,
320.0,76.93956028165162,76.51500792392947,,,
321.0,77.16649738242864,76.73100792359931,,,
322.0,77.38766770084005,76.94121996107043,,,
323.0,77.60300578903038,77.1455816429152,,,
324.0,77.81244792499487,77.34403231216095,,,
325.0,78.01593213143587,77.53651306629367,,,
326.0,78.21339819410301,77.72296677474107,,,
327.0,78.40478767961133,77.90333809582954,,,
328.0,78.590043952733,78.0775734932102,,,
329.0,78.76911219315625,78.24562125174916,,,
330.0,78.94193941170784,78.40743149287718,,,
331.0,79.10847446603324,78.56295618939426,,,
332.0,79.26866807573066,78.71214917972455,,,
333.0,79.42247283693365,78.85496618161784,,,
334.0,79.56984323633893,78.99136480529292,,,
335.0,79.71073566467433,79.12130456601939,,,
336.0,79.84510842960358,79.24474689613407,,,
337.0,79.97292176806369,79.3616551564883,,,
338.0,80.09413785803146,79.47199464732282,,,
339.0,80.20872082971573,79.57573261856722,,,
340.0,80.31663677617169,79.67283827956038,,,
341.0,80.41785376333459,79.76328280818959,,,
342.0,80.51234183946951,79.84703935944532,,,
343.0,80.60007304403456,79.92408307338907,,,
344.0,80.68102141595483,79.99439108253215,,,
345.0,80.75516300130474,80.05794251862295,,,
346.0,80.82247586039637,80.11471851884102,,,
347.0,80.88294007427174,80.16470223139558,,,
348.0,80.93653775059721,80.20787882052754,,,
349.0,80.98325302895805,80.2442354709128,,,
350.0,81.02307208555179,80.27376139146601,,,
351.0,81.05598313727899,80.29644781854351,,,
352.0,81.08197644522993,80.3122880185445,,,
353.0,81.1010443175666,80.32127728990962,,,
354.0,81.11318111179882,80.32341296451642,,,
355.0,81.1183832364539,80.31869440847134,,,
356.0,81.11664915213946,80.30712302229783,,,
357.0,81.10797937199895,80.28870224052062,,,
358.0,81.09237646155981,80.2634375306464,,,
359.0,81.06984503797423,80.23133639154088,,,
360.0,81.040391768653,80.19240835120317,,,
361.0,81.00402536929231,80.14666496393767,,,
362.0,80.96075660129485,80.0941198069246,,,
363.0,80.91059826858518,80.03478847619024,,,
364.0,80.85356521382093,79.96868858197773,,,
365.0,80.78967431400056,79.89583974352017,,,
366.0,80.71894447546927,79.81626358321745,,,
367.0,80.64139662832417,79.7299837202184,,,
368.0,80.55705372022088,79.63702576341038,,,
369.0,80.46594070958285,79.53741730381827,,,
370.0,80.3680845582158,79.43118790641509,,,
371.0,80.26351422332928,79.31836910134678,,,
372.0,80.15226064896773,79.19899437457372,,,
373.0,80.03435675685373,79.07309915793161,,,
374.0,79.90983743664582,78.94072081861495,,,
375.0,79.77873953561419,78.80189864808602,,,
376.0,79.64110184773692,78.65667385041267,,,
377.0,79.49696510222023,78.50508953003846,,,
378.0,79.34637195144606,78.3471906789888,,,
379.0,79.18936695835052,78.18302416351669,,,
380.0,79.02599658323705,78.01263871019239,,,
381.0,78.856309170028,77.83608489144069,,,
382.0,78.68035493195897,77.65341511053045,,,
383.0,78.49818593671982,77.46468358602068,,,
384.0,78.30985609104708,77.26994633566787,,,
385.0,78.11542112477198,77.06926115979915,,,
386.0,77.91493857432926,76.86268762415664,,,
387.0,77.70846776573099,76.6502870422174,,,
388.0,77.49606979701124,76.43212245699513,,,
389.0,77.27780752014615,76.208258622328,,,
390.0,77.05374552245492,75.97876198365913,,,
391.0,76.82395010748749,75.74370065831467,,,
392.0,76.58848927540416,75.50314441528586,,,
393.0,76.34743270285341,75.25716465452071,,,
394.0,76.10085172235321,75.00583438573165,,,
395.0,75.84881930118287,74.74922820672542,,,
396.0,75.59141001979056,74.48742228126153,,,
397.0,75.32870004972399,74.22049431644595,,,
398.0,75.06076713108993,73.94852353966668,,,
399.0,74.7876905495496,73.67159067507822,,,
400.0,74.50955111285685,73.3897779196416,,,
401.0,74.22643112694584,73.10316891872736,,,
402.0,73.93841437157538,72.81184874128867,,,
403.0,73.64558607553708,72.51590385461174,,,
404.0,73.34803289143494,72.2154220986514,,,
405.0,73.0458428700433,71.91049265995917,,,
406.0,72.73910543425123,71.60120604521153,,,
407.0,72.42791135260096,71.28765405434658,,,
408.0,72.11235271242782,70.96992975331659,,,
409.0,71.79252289261036,70.64812744646514,,,
410.0,71.46851653593775,70.32234264853624,,,
411.0,71.14042952110377,69.99267205632452,,,
412.0,70.80835893433446,69.65921351997451,,,
413.0,70.472403040659,69.32206601393753,,,
414.0,70.13266125483128,68.98132960759484,,,
415.0,69.7892341119117,68.63710543555592,,,
416.0,69.44222323751701,68.28949566764052,,,
417.0,69.09173131774784,67.93860347855342,,,
418.0,68.73786206880216,67.58453301726097,,,
419.0,68.38072020628387,67.22738937607839,,,
420.0,68.02041141421601,66.86727855947723,,,
421.0,67.65704231376691,66.50430745262187,,,
422.0,67.2907204316995,66.13858378964483,,,
423.0,66.92155416855215,65.77021612166992,,,
424.0,66.54965276656154,65.399313784593,,,
425.0,66.17512627733576,65.02598686662985,,,
