Energy theoretical (eV),Theoretical surface plasmon (arbitrary unit),Theoretical bulk plasmon (arbitrary unit),Energy lab data (eV),Measured amplitude (arbitrary unit),Imaginary part of polarizability (normalized intensity)
70.539,0.01980,0.04451,70.6,0.50498,0.0122
70.037,0.02071,0.04691,70.1,0.50213,0.0127
69.539,0.02169,0.04952,69.6,0.50925,0.0133
69.036,0.02312,0.05317,69.1,0.50925,0.0141
68.536,0.02411,0.05589,68.6,0.51351,0.0147
68.036,0.02511,0.05866,68.1,0.51494,0.0153
67.536,0.02663,0.06281,67.6,0.52063,0.0162
67.036,0.02808,0.06674,67.1,0.52063,0.0170
66.536,0.02962,0.07109,66.6,0.52489,0.0179
66.037,0.03109,0.07534,66.1,0.52205,0.0187
65.534,0.03272,0.08003,65.6,0.53343,0.0197
65.036,0.03473,0.08577,65.1,0.52489,0.0208
64.535,0.03630,0.09051,64.6,0.53485,0.0217
64.032,0.03839,0.09665,64.1,0.53485,0.0229
63.534,0.04050,0.10295,63.6,0.53912,0.0241
63.034,0.04271,0.10979,63.1,0.53770,0.0253
62.535,0.04536,0.11769,62.6,0.54339,0.0268
62.034,0.04805,0.12603,62.1,0.54481,0.0283
61.533,0.05037,0.13366,61.6,0.55192,0.0296
61.033,0.05314,0.14229,61.1,0.54765,0.0311
60.533,0.05647,0.15282,60.6,0.55619,0.0330
60.032,0.05937,0.16240,60.1,0.55334,0.0346
59.531,0.06281,0.17362,59.6,0.56472,0.0365
59.032,0.06637,0.18572,59.1,0.56330,0.0384
58.531,0.06985,0.19741,58.6,0.57752,0.0403
58.030,0.07353,0.21032,58.1,0.58037,0.0423
57.532,0.07788,0.22566,57.6,0.59033,0.0446
57.029,0.08169,0.23948,57.1,0.59459,0.0466
56.530,0.08671,0.25718,56.6,0.60455,0.0493
56.030,0.09142,0.27512,56.1,0.61166,0.0518
55.531,0.09733,0.29641,55.6,0.62304,0.0549
55.028,0.10340,0.31928,55.1,0.62873,0.0580
54.530,0.11083,0.34655,54.6,0.64011,0.0619
54.029,0.11903,0.37600,54.1,0.64580,0.0662
53.528,0.12842,0.40815,53.6,0.65576,0.0711
53.029,0.13932,0.44398,53.1,0.66430,0.0768
52.528,0.15181,0.48073,52.6,0.67710,0.0833
52.028,0.16577,0.51494,52.1,0.67994,0.0909
51.526,0.18044,0.54395,51.6,0.68848,0.0989
51.026,0.19529,0.56184,51.1,0.69275,0.1074
50.527,0.20808,0.56768,50.6,0.70413,0.1152
50.026,0.21754,0.56255,50.1,0.70555,0.1215
49.527,0.22308,0.55027,49.6,0.71124,0.1257
49.026,0.22446,0.53840,49.1,0.71693,0.1274
48.525,0.22519,0.53383,48.6,0.71835,0.1282
48.026,0.22746,0.54403,48.1,0.71693,0.1290
47.525,0.23922,0.58070,47.6,0.72262,0.1341
47.024,0.28595,0.64912,47.1,0.72119,0.1583
46.525,0.26989,0.45054,46.6,0.72119,0.1666
46.025,0.22684,0.47335,46.1,0.71266,0.1338
45.525,0.24236,0.53240,45.6,0.70839,0.1395
45.024,0.26429,0.57234,45.1,0.70413,0.1506
44.523,0.28696,0.58950,44.6,0.69417,0.1636
44.024,0.30703,0.58691,44.1,0.68706,0.1765
43.523,0.32128,0.57042,43.6,0.67852,0.1873
43.022,0.32962,0.55145,43.1,0.66430,0.1949
42.522,0.33438,0.53753,42.6,0.65434,0.1998
42.022,0.34198,0.53184,42.1,0.64580,0.2056
41.522,0.35722,0.53113,41.6,0.63727,0.2157
41.022,0.38151,0.52358,41.1,0.62731,0.2329
40.522,0.40718,0.49336,40.6,0.62304,0.2561
40.021,0.41458,0.43937,40.1,0.61593,0.2752
39.521,0.38961,0.37909,39.6,0.61309,0.2751
39.020,0.34463,0.33180,39.1,0.61024,0.2532
38.520,0.30656,0.30738,38.6,0.60455,0.2268
38.021,0.29239,0.30624,38.1,0.60313,0.2139
37.520,0.30379,0.31151,37.6,0.60455,0.2228
37.020,0.30328,0.27892,37.1,0.60455,0.2344
36.520,0.24283,0.21429,36.6,0.60171,0.1983
36.019,0.17825,0.17015,36.1,0.60597,0.1441
35.519,0.14561,0.15629,35.6,0.60740,0.1128
35.019,0.15908,0.18853,35.1,0.61735,0.1177
34.519,0.13163,0.13589,34.6,0.62162,0.1042
34.018,0.08931,0.10799,34.1,0.64154,0.0668
33.518,0.08300,0.11108,33.6,0.65292,0.0597
33.017,0.08128,0.11782,33.1,0.67568,0.0568
32.517,0.08155,0.12693,32.6,0.69275,0.0556
32.017,0.08309,0.13825,32.1,0.71835,0.0554
31.517,0.08634,0.15337,31.6,0.73969,0.0563
31.016,0.09046,0.17154,31.1,0.76671,0.0578
30.516,0.09584,0.19409,30.6,0.79232,0.0600
30.016,0.10271,0.22218,30.1,0.82077,0.0630
29.515,0.11126,0.25698,29.6,0.84495,0.0669
29.016,0.12125,0.30043,29.1,0.87340,0.0714
28.515,0.13347,0.35417,28.6,0.90043,0.0769
28.015,0.14827,0.41980,28.1,0.92461,0.0837
27.515,0.16580,0.49935,27.6,0.94595,0.0915
27.014,0.18647,0.59369,27.1,0.96586,0.1006
26.514,0.21077,0.69652,26.6,0.97724,0.1112
26.014,0.24029,0.80302,26.1,0.99573,0.1240
25.514,0.27402,0.89895,25.6,0.99289,0.1384
25.013,0.31342,0.96811,25.1,1.00000,0.1551
24.513,0.35807,1.00000,24.6,0.98862,0.1741
24.013,0.40738,0.99288,24.1,0.98009,0.1952
23.513,0.46075,0.95403,23.6,0.96017,0.2185
23.012,0.51705,0.89582,23.1,0.94168,0.2440
22.512,0.57337,0.83290,22.6,0.91465,0.2704
22.012,0.63001,0.76969,22.1,0.88762,0.2983
21.511,0.68621,0.70977,21.6,0.85491,0.3276
21.011,0.74235,0.65316,21.1,0.82361,0.3591
20.511,0.80083,0.59965,20.6,0.78236,0.3937
20.011,0.86152,0.54695,20.1,0.74964,0.4336
19.510,0.91975,0.49468,19.6,0.70697,0.4803
19.010,0.96871,0.44444,19.1,0.66999,0.5342
18.510,1.00000,0.39656,18.6,0.62731,0.5960
18.010,0.99973,0.35302,18.1,0.58606,0.6614
17.509,0.96673,0.31454,17.6,0.54908,0.7243
17.009,0.90442,0.28222,17.1,0.51351,0.7725
16.509,0.82741,0.25546,16.6,0.48222,0.7980
16.009,0.74640,0.23420,16.1,0.45092,0.7943
15.508,0.67295,0.21779,15.6,0.42248,0.7672
15.008,0.61066,0.20559,15.1,0.40256,0.7253
14.508,0.56262,0.19739,14.6,0.37980,0.6804
14.007,0.52823,0.19223,14.1,0.36415,0.6416
13.507,0.50711,0.18921,13.6,0.33713,0.6158
13.007,0.49479,0.18525,13.1,0.32290,0.6068
12.507,0.47053,0.17264,12.6,0.29730,0.6033
12.006,0.38695,0.14791,12.1,0.27312,0.5167
11.506,0.35178,0.16365,11.6,0.24609,0.4062
11.006,0.44179,0.21953,11.1,0.21764,0.4492
10.506,0.55992,0.24891,10.6,0.18777,0.5518
10.005,0.66118,0.23663,10.1,0.15789,0.6963
9.505,0.68497,0.19572,9.6,0.12518,0.8715
9.005,0.59871,0.14973,9.1,0.10100,1.0000
8.504,0.46038,0.11227,8.6,0.06970,0.9602
8.004,0.33877,0.08581,8.1,0.05121,0.7721
7.504,0.25297,0.06792,7.6,0.02703,0.5727
7.004,0.19650,0.05585,7.1,0.01565,0.4265
6.503,0.15881,0.04734,6.6,0.00000,0.3296
6.003,0.13111,0.04050,6.1,0.00427,0.2628
5.503,0.10589,0.03355,,,0.2072
5.003,0.07804,0.02529,,,0.1496
4.753,0.06330,0.02079,,,0.1197
4.502,0.04921,0.01643,,,0.0914
4.252,0.03684,0.01253,,,0.0671
4.002,0.02684,0.00931,,,0.0478
3.752,0.01927,0.00681,,,0.0336
3.502,0.01383,0.00498,,,0.0236
3.252,0.01005,0.00368,,,0.0168
3.002,0.00746,0.00278,,,0.0123
2.751,0.00570,0.00215,,,0.0093
2.501,0.00451,0.00172,,,0.0072
2.251,0.00369,0.00142,,,0.0059
2.001,0.00313,0.00122,,,0.0049
1.751,0.00277,0.00108,,,0.0043
1.501,0.00259,0.00102,,,0.0040
1.251,0.00270,0.00107,,,0.0042
1.001,0.00354,0.00141,,,0.0055
0.750,0.00379,0.00150,,,0.0058
0.500,0.00033,0.00013,,,0.0005