x-axis (inverse cm), DICING_transmission_spectrum (percent), PDMS_transmission_spectrum (percent), x-axis (inverse cm), KAPTON_transmission_spectrum (percent), PMMA_transmission_spectrum (percent)
3997.46158,1.05711,1.05948,3997.46158,1.05769,1.02887
3995.53324,1.05727,1.05967,3995.53324,1.05773,1.02905
3993.60489,1.05757,1.05999,3993.60489,1.05788,1.02927
3991.67655,1.05759,1.06011,3991.67655,1.05785,1.0292
3989.7482,1.05734,1.05992,3989.7482,1.05758,1.02893
3987.81985,1.0572,1.05965,3987.81985,1.05739,1.0288
3985.89151,1.05727,1.05951,3985.89151,1.0574,1.02883
3983.96316,1.05735,1.05959,3983.96316,1.05746,1.02887
3982.03481,1.0573,1.05977,3982.03481,1.05749,1.02886
3980.10647,1.05718,1.0598,3980.10647,1.05751,1.02877
3978.17812,1.05711,1.05958,3978.17812,1.05738,1.02855
3976.24978,1.057,1.05934,3976.24978,1.05709,1.02832
3974.32143,1.05694,1.05929,3974.32143,1.0569,1.0282
3972.39308,1.05703,1.05938,3972.39308,1.05698,1.02824
3970.46474,1.05713,1.05948,3970.46474,1.05718,1.02832
3968.53639,1.05709,1.05954,3968.53639,1.05739,1.02842
3966.60805,1.05699,1.0595,3966.60805,1.05749,1.02855
3964.6797,1.05687,1.05933,3964.6797,1.05739,1.02856
3962.75135,1.05676,1.05918,3962.75135,1.05715,1.0284
3960.82301,1.05679,1.05919,3960.82301,1.05696,1.02823
3958.89466,1.05701,1.05926,3958.89466,1.05689,1.02811
3956.96631,1.0572,1.05925,3956.96631,1.05689,1.02802
3955.03797,1.05717,1.05923,3955.03797,1.05693,1.02797
3953.10962,1.05694,1.05929,3953.10962,1.05692,1.02792
3951.18128,1.05668,1.05934,3951.18128,1.0568,1.02773
3949.25293,1.05659,1.05937,3949.25293,1.05664,1.02748
3947.32458,1.05666,1.05931,3947.32458,1.05658,1.02736
3945.39624,1.05665,1.05908,3945.39624,1.05652,1.02731
3943.46789,1.05656,1.05886,3943.46789,1.0565,1.02735
3941.53955,1.0567,1.05894,3941.53955,1.05671,1.02762
3939.6112,1.057,1.05928,3939.6112,1.05703,1.02796
3937.68285,1.05715,1.05957,3937.68285,1.05708,1.02807
3935.75451,1.05706,1.05962,3935.75451,1.05669,1.02788
3933.82616,1.05677,1.05948,3933.82616,1.05611,1.0275
3931.89781,1.05653,1.05933,3931.89781,1.05585,1.02726
3929.96947,1.05654,1.05934,3929.96947,1.05612,1.0274
3928.04112,1.05658,1.05934,3928.04112,1.05641,1.02762
3926.11278,1.0564,1.05919,3926.11278,1.05632,1.02758
3924.18443,1.05619,1.05908,3924.18443,1.0561,1.02743
3922.25608,1.05608,1.05906,3922.25608,1.05605,1.02733
3920.32774,1.05598,1.05898,3920.32774,1.05605,1.02713
3918.39939,1.05601,1.05886,3918.39939,1.05602,1.02689
3916.47105,1.05627,1.0589,3916.47105,1.05617,1.02691
3914.5427,1.05661,1.05912,3914.5427,1.05653,1.02724
3912.61435,1.05679,1.05938,3912.61435,1.05688,1.02758
3910.68601,1.05679,1.05952,3910.68601,1.05702,1.02767
3908.75766,1.0566,1.05938,3908.75766,1.0568,1.02744
3906.82931,1.05619,1.0589,3906.82931,1.05616,1.02689
3904.90097,1.05574,1.05837,3904.90097,1.05541,1.02628
3902.97262,1.05559,1.0582,3902.97262,1.05505,1.02599
3901.04428,1.05576,1.05836,3901.04428,1.05526,1.02614
3899.11593,1.05614,1.05873,3899.11593,1.05581,1.02652
3897.18758,1.05656,1.05921,3897.18758,1.05629,1.02688
3895.25924,1.05671,1.05957,3895.25924,1.05647,1.02706
3893.33089,1.05669,1.05968,3893.33089,1.05654,1.02718
3891.40254,1.05683,1.05966,3891.40254,1.05671,1.02737
3889.4742,1.05699,1.05961,3889.4742,1.05681,1.02743
3887.54585,1.05683,1.05951,3887.54585,1.05669,1.02724
3885.61751,1.05659,1.05948,3885.61751,1.05648,1.02702
3883.68916,1.05652,1.05953,3883.68916,1.05621,1.0268
3881.76081,1.05666,1.05959,3881.76081,1.05591,1.02655
3879.83247,1.05703,1.05974,3879.83247,1.05592,1.02656
3877.90412,1.05738,1.05997,3877.90412,1.05626,1.02686
3875.97578,1.05745,1.06011,3875.97578,1.05657,1.02718
3874.04743,1.05734,1.06012,3874.04743,1.05657,1.02731
3872.11908,1.05716,1.05996,3872.11908,1.05627,1.02715
3870.19074,1.05706,1.05981,3870.19074,1.05608,1.0269
3868.26239,1.05713,1.05993,3868.26239,1.05622,1.02688
3866.33404,1.05722,1.06018,3866.33404,1.05645,1.02705
3864.4057,1.05728,1.06033,3864.4057,1.05658,1.02719
3862.47735,1.05736,1.06039,3862.47735,1.0566,1.02718
3860.54901,1.05732,1.06039,3860.54901,1.05643,1.02705
3858.62066,1.05708,1.0604,3858.62066,1.05613,1.02694
3856.69231,1.05688,1.0605,3856.69231,1.0561,1.02715
3854.76397,1.057,1.06046,3854.76397,1.05678,1.02771
3852.83562,1.05746,1.0603,3852.83562,1.05759,1.02814
3850.90728,1.05769,1.06017,3850.90728,1.05756,1.02795
3848.97893,1.05758,1.06019,3848.97893,1.05701,1.02749
3847.05058,1.05747,1.06029,3847.05058,1.05666,1.0272
3845.12224,1.0574,1.06035,3845.12224,1.05663,1.02714
3843.19389,1.05739,1.06046,3843.19389,1.05667,1.02721
3841.26554,1.05749,1.06072,3841.26554,1.05671,1.02738
3839.3372,1.05776,1.06109,3839.3372,1.05696,1.0278
3837.40885,1.05801,1.06131,3837.40885,1.0574,1.02824
3835.48051,1.05798,1.06113,3835.48051,1.05752,1.02821
3833.55216,1.05784,1.06082,3833.55216,1.05725,1.02785
3831.62381,1.05775,1.06056,3831.62381,1.05695,1.02756
3829.69547,1.05766,1.06037,3829.69547,1.05678,1.02739
3827.76712,1.05764,1.06033,3827.76712,1.05669,1.02727
3825.83878,1.05768,1.06042,3825.83878,1.05662,1.0272
3823.91043,1.05767,1.06058,3823.91043,1.0567,1.02732
3821.98208,1.05778,1.06075,3821.98208,1.05708,1.02765
3820.05374,1.05793,1.06084,3820.05374,1.05734,1.02781
3818.12539,1.05779,1.06079,3818.12539,1.05729,1.0277
3816.19704,1.05751,1.06066,3816.19704,1.05725,1.02763
3814.2687,1.05722,1.06034,3814.2687,1.0571,1.02745
3812.34035,1.05696,1.05999,3812.34035,1.05671,1.0271
3810.41201,1.05692,1.05987,3810.41201,1.05651,1.02699
3808.48366,1.05722,1.06004,3808.48366,1.05678,1.02726
3806.55531,1.05758,1.06032,3806.55531,1.05715,1.02752
3804.62697,1.05765,1.0605,3804.62697,1.05727,1.02758
3802.69862,1.05765,1.06057,3802.69862,1.05737,1.02764
3800.77028,1.05764,1.06042,3800.77028,1.05746,1.02758
3798.84193,1.05735,1.06006,3798.84193,1.05726,1.02719
3796.91358,1.05698,1.05979,3796.91358,1.05697,1.02682
3794.98524,1.05672,1.05955,3794.98524,1.05678,1.02661
3793.05689,1.05645,1.05917,3793.05689,1.0566,1.02642
3791.12854,1.05624,1.05881,3791.12854,1.05645,1.02625
3789.2002,1.05616,1.05862,3789.2002,1.05634,1.02612
3787.27185,1.05608,1.0585,3787.27185,1.05624,1.02602
3785.34351,1.05604,1.05844,3785.34351,1.05622,1.02604
3783.41516,1.05616,1.05849,3783.41516,1.05638,1.0262
3781.48681,1.05638,1.05861,3781.48681,1.05665,1.02639
3779.55847,1.05653,1.05867,3779.55847,1.05683,1.02641
3777.63012,1.05644,1.05863,3777.63012,1.05675,1.0262
3775.70178,1.0562,1.05854,3775.70178,1.0565,1.02591
3773.77343,1.05605,1.05843,3773.77343,1.05626,1.02574
3771.84508,1.0561,1.05836,3771.84508,1.0561,1.02571
3769.91674,1.05624,1.05843,3769.91674,1.05609,1.02576
3767.98839,1.05629,1.05857,3767.98839,1.05617,1.0257
3766.06004,1.05623,1.05863,3766.06004,1.05623,1.02554
3764.1317,1.05628,1.05865,3764.1317,1.0563,1.02548
3762.20335,1.05641,1.05872,3762.20335,1.05635,1.02556
3760.27501,1.05652,1.05884,3760.27501,1.0563,1.02563
3758.34666,1.05664,1.05904,3758.34666,1.05607,1.0256
3756.41831,1.05677,1.05924,3756.41831,1.05577,1.02555
3754.48997,1.05696,1.05947,3754.48997,1.05566,1.02572
3752.56162,1.05741,1.05993,3752.56162,1.05595,1.02622
3750.63328,1.05809,1.06065,3750.63328,1.05632,1.02664
3748.70493,1.05817,1.06096,3748.70493,1.05613,1.02632
3746.77658,1.05757,1.06066,3746.77658,1.0555,1.02552
3744.84824,1.05706,1.06004,3744.84824,1.05524,1.02498
3742.91989,1.05678,1.05932,3742.91989,1.05548,1.02483
3740.99154,1.05629,1.05865,3740.99154,1.05563,1.02473
3739.0632,1.05559,1.05814,3739.0632,1.05519,1.02438
3737.13485,1.05486,1.05763,3737.13485,1.05451,1.02391
3735.20651,1.05476,1.05745,3735.20651,1.05471,1.02405
3733.27816,1.05547,1.05782,3733.27816,1.0561,1.02509
3731.34981,1.05626,1.0584,3731.34981,1.05692,1.02582
3729.42147,1.05646,1.05876,3729.42147,1.05609,1.0254
3727.49312,1.05625,1.05883,3727.49312,1.05455,1.02443
3725.56478,1.05605,1.05878,3725.56478,1.05359,1.0238
3723.63643,1.05608,1.05882,3723.63643,1.05356,1.02377
3721.70808,1.05625,1.0589,3721.70808,1.05394,1.02401
3719.77974,1.05636,1.05889,3719.77974,1.0543,1.0242
3717.85139,1.05619,1.0586,3717.85139,1.05461,1.02431
3715.92304,1.05575,1.05809,3715.92304,1.0549,1.02436
3713.9947,1.05545,1.05767,3713.9947,1.05524,1.02452
3712.06635,1.05578,1.05777,3712.06635,1.05558,1.02485
3710.13801,1.05635,1.05816,3710.13801,1.05577,1.02504
3708.20966,1.05615,1.05798,3708.20966,1.05582,1.02482
3706.28131,1.05537,1.05733,3706.28131,1.05579,1.02444
3704.35297,1.05476,1.05681,3704.35297,1.05578,1.02421
3702.42462,1.05464,1.05664,3702.42462,1.05583,1.02418
3700.49628,1.05492,1.05677,3700.49628,1.05574,1.02421
3698.56793,1.05533,1.05706,3698.56793,1.0554,1.02419
3696.63958,1.05558,1.05736,3696.63958,1.05501,1.02409
3694.71124,1.05563,1.05764,3694.71124,1.0547,1.02392
3692.78289,1.05558,1.05783,3692.78289,1.05459,1.02384
3690.85454,1.05554,1.05777,3690.85454,1.055,1.02399
3688.9262,1.0555,1.0575,3688.9262,1.05563,1.0241
3686.99785,1.05547,1.05732,3686.99785,1.05558,1.02373
3685.06951,1.05545,1.05738,3685.06951,1.05491,1.02309
3683.14116,1.05549,1.05754,3683.14116,1.05435,1.02258
3681.21281,1.0555,1.05761,3681.21281,1.05412,1.02225
3679.28447,1.05545,1.05772,3679.28447,1.05402,1.02206
3677.35612,1.05541,1.0579,3677.35612,1.05406,1.02194
3675.42778,1.05544,1.05798,3675.42778,1.05429,1.02166
3673.49943,1.05535,1.05782,3673.49943,1.05441,1.02108
3671.57108,1.05509,1.05751,3671.57108,1.05435,1.02044
3669.64274,1.05501,1.05729,3669.64274,1.05445,1.01996
3667.71439,1.0552,1.0573,3667.71439,1.05461,1.01955
3665.78604,1.05535,1.05738,3665.78604,1.05454,1.0191
3663.8577,1.05531,1.05729,3663.8577,1.05422,1.01856
3661.92935,1.05508,1.05704,3661.92935,1.05376,1.01791
3660.00101,1.05479,1.05681,3660.00101,1.05338,1.01725
3658.07266,1.05462,1.05667,3658.07266,1.0533,1.01668
3656.14431,1.05462,1.05657,3656.14431,1.0534,1.01622
3654.21597,1.05454,1.05644,3654.21597,1.05336,1.01583
3652.28762,1.05423,1.05624,3652.28762,1.05305,1.01541
3650.35928,1.0541,1.05614,3650.35928,1.05257,1.01487
3648.43093,1.05438,1.05623,3648.43093,1.05212,1.01429
3646.50258,1.0546,1.05628,3646.50258,1.05194,1.01388
3644.57424,1.05453,1.05625,3644.57424,1.05199,1.01366
3642.64589,1.05433,1.05619,3642.64589,1.05215,1.01353
3640.71754,1.05427,1.05616,3640.71754,1.05245,1.01355
3638.7892,1.05438,1.05618,3638.7892,1.05278,1.01364
3636.86085,1.05454,1.05624,3636.86085,1.05288,1.01356
3634.93251,1.05458,1.05628,3634.93251,1.05272,1.01329
3633.00416,1.05431,1.05616,3633.00416,1.05242,1.01302
3631.07581,1.05384,1.05589,3631.07581,1.05211,1.01286
3629.14747,1.05372,1.05579,3629.14747,1.05197,1.0129
3627.21912,1.0541,1.05604,3627.21912,1.05217,1.01312
3625.29078,1.05437,1.05628,3625.29078,1.05237,1.01324
3623.36243,1.05415,1.05621,3623.36243,1.05239,1.01319
3621.43408,1.05354,1.05573,3621.43408,1.05249,1.01306
3619.50574,1.05314,1.05534,3619.50574,1.0526,1.01288
3617.57739,1.05337,1.05556,3617.57739,1.05229,1.01267
3615.64904,1.05375,1.056,3615.64904,1.05166,1.01252
3613.7207,1.05384,1.05611,3613.7207,1.05119,1.01253
3611.79235,1.05372,1.05596,3611.79235,1.05098,1.01265
3609.86401,1.05362,1.05586,3609.86401,1.05087,1.01268
3607.93566,1.05379,1.05604,3607.93566,1.05098,1.01269
3606.00731,1.05412,1.05637,3606.00731,1.05148,1.01283
3604.07897,1.05427,1.05655,3604.07897,1.05202,1.01304
3602.15062,1.05432,1.05665,3602.15062,1.05226,1.01326
3600.22228,1.05436,1.05678,3600.22228,1.05228,1.01348
3598.29393,1.0543,1.0568,3598.29393,1.05215,1.0135
3596.36558,1.05426,1.05672,3596.36558,1.05193,1.01333
3594.43724,1.0544,1.0567,3594.43724,1.05175,1.01324
3592.50889,1.05436,1.05656,3592.50889,1.0515,1.01314
3590.58054,1.05378,1.05611,3590.58054,1.05091,1.0127
3588.6522,1.05305,1.05554,3588.6522,1.05025,1.01211
3586.72385,1.05297,1.05552,3586.72385,1.05029,1.01204
3584.79551,1.05353,1.0561,3584.79551,1.05108,1.01262
3582.86716,1.05395,1.05653,3582.86716,1.05182,1.01315
3580.93881,1.05397,1.0565,3580.93881,1.05202,1.01316
3579.01047,1.05387,1.05634,3579.01047,1.05191,1.01288
3577.08212,1.05395,1.05638,3577.08212,1.05182,1.01271
3575.15378,1.05411,1.05656,3575.15378,1.05179,1.01261
3573.22543,1.05398,1.05658,3573.22543,1.05154,1.01228
3571.29708,1.0533,1.05611,3571.29708,1.05069,1.01145
3569.36874,1.0523,1.05528,3569.36874,1.04932,1.0103
3567.44039,1.05176,1.05487,3567.44039,1.04835,1.00957
3565.51204,1.05216,1.05536,3565.51204,1.0486,1.00985
3563.5837,1.0529,1.05607,3563.5837,1.04945,1.01053
3561.65535,1.05327,1.05627,3561.65535,1.04998,1.01085
3559.72701,1.05334,1.05625,3559.72701,1.05015,1.01089
3557.79866,1.05335,1.05638,3557.79866,1.05028,1.01095
3555.87031,1.05331,1.05644,3555.87031,1.05032,1.01094
3553.94197,1.05327,1.05629,3553.94197,1.05028,1.01087
3552.01362,1.05331,1.05619,3552.01362,1.05031,1.01095
3550.08528,1.0532,1.05617,3550.08528,1.05023,1.01099
3548.15693,1.05284,1.05594,3548.15693,1.04991,1.01072
3546.22858,1.05264,1.05562,3546.22858,1.0498,1.01057
3544.30024,1.0529,1.0557,3544.30024,1.05031,1.01101
3542.37189,1.05333,1.05617,3542.37189,1.05103,1.01169
3540.44354,1.05348,1.05644,3540.44354,1.05127,1.01193
3538.5152,1.0533,1.05625,3538.5152,1.051,1.01164
3536.58685,1.05313,1.05601,3536.58685,1.05078,1.01135
3534.65851,1.05322,1.05611,3534.65851,1.05096,1.01146
3532.73016,1.05341,1.05636,3532.73016,1.05134,1.01175
3530.80181,1.0535,1.0564,3530.80181,1.05152,1.01181
3528.87347,1.05342,1.05618,3528.87347,1.05134,1.01152
3526.94512,1.05312,1.05582,3526.94512,1.05086,1.01101
3525.01678,1.0528,1.05554,3525.01678,1.05046,1.01053
3523.08843,1.05277,1.05555,3523.08843,1.05055,1.01037
3521.16008,1.05291,1.05577,3521.16008,1.05104,1.0105
3519.23174,1.0529,1.05589,3519.23174,1.05141,1.01058
3517.30339,1.05283,1.05588,3517.30339,1.05143,1.01048
3515.37504,1.05291,1.05588,3515.37504,1.05134,1.01036
3513.4467,1.05305,1.05596,3513.4467,1.05135,1.01019
3511.51835,1.05308,1.056,3511.51835,1.05132,1.00978
3509.59001,1.05308,1.05596,3509.59001,1.05123,1.00924
3507.66166,1.0531,1.05592,3507.66166,1.05122,1.00886
3505.73331,1.05286,1.0558,3505.73331,1.05113,1.00844
3503.80497,1.05247,1.0556,3503.80497,1.05082,1.00783
3501.87662,1.05242,1.05559,3501.87662,1.05073,1.00736
3499.94828,1.05269,1.05584,3499.94828,1.05101,1.00707
3498.01993,1.05289,1.05609,3498.01993,1.05134,1.0067
3496.09158,1.05292,1.05624,3496.09158,1.05158,1.00625
3494.16324,1.05291,1.0563,3494.16324,1.05177,1.00579
3492.23489,1.05283,1.0562,3492.23489,1.05175,1.00512
3490.30654,1.05272,1.05604,3490.30654,1.05162,1.00435
3488.3782,1.0527,1.05601,3488.3782,1.05158,1.00395
3486.44985,1.05273,1.05606,3486.44985,1.0515,1.00397
3484.52151,1.05259,1.05598,3484.52151,1.05121,1.00406
3482.59316,1.05232,1.0558,3482.59316,1.05088,1.00408
3480.66481,1.05223,1.05579,3480.66481,1.05077,1.00424
3478.73647,1.05235,1.05595,3478.73647,1.05085,1.00458
3476.80812,1.05242,1.05608,3476.80812,1.05079,1.0049
3474.87978,1.05234,1.05604,3474.87978,1.05057,1.00522
3472.95143,1.05229,1.05592,3472.95143,1.0505,1.00573
3471.02308,1.05243,1.05589,3471.02308,1.05069,1.00649
3469.09474,1.05258,1.05593,3469.09474,1.05079,1.00717
3467.16639,1.05256,1.05595,3467.16639,1.05051,1.00742
3465.23804,1.05245,1.05596,3465.23804,1.05001,1.00738
3463.3097,1.0525,1.05603,3463.3097,1.04974,1.00747
3461.38135,1.05264,1.05615,3461.38135,1.04972,1.00777
3459.45301,1.05259,1.05627,3459.45301,1.04951,1.00795
3457.52466,1.05234,1.05634,3457.52466,1.04898,1.00794
3455.59631,1.05216,1.05635,3455.59631,1.04852,1.00798
3453.66797,1.05222,1.0563,3453.66797,1.04837,1.00812
3451.73962,1.05236,1.05627,3451.73962,1.04832,1.00814
3449.81128,1.05231,1.05627,3449.81128,1.04803,1.00797
3447.88293,1.05212,1.05616,3447.88293,1.04746,1.00769
3445.95458,1.05199,1.05599,3445.95458,1.04683,1.00738
3444.02624,1.05203,1.05593,3444.02624,1.04638,1.0072
3442.09789,1.05222,1.056,3442.09789,1.04618,1.00727
3440.16954,1.05241,1.0561,3440.16954,1.04625,1.00764
3438.2412,1.05245,1.05613,3438.2412,1.04638,1.00814
3436.31285,1.05247,1.05614,3436.31285,1.04619,1.00846
3434.38451,1.05259,1.05623,3434.38451,1.04558,1.00842
3432.45616,1.05277,1.05636,3432.45616,1.04489,1.00818
3430.52781,1.05283,1.05636,3430.52781,1.04448,1.00791
3428.59947,1.05279,1.0563,3428.59947,1.04444,1.00753
3426.67112,1.05285,1.05629,3426.67112,1.04469,1.00714
3424.74277,1.05296,1.05622,3424.74277,1.04503,1.00673
3422.81443,1.05292,1.05609,3422.81443,1.04544,1.00631
3420.88608,1.05287,1.05609,3420.88608,1.04607,1.00611
3418.95774,1.05293,1.0561,3418.95774,1.04672,1.00612
3417.02939,1.0529,1.05589,3417.02939,1.04713,1.00607
3415.10104,1.05284,1.05567,3415.10104,1.04754,1.00609
3413.1727,1.05302,1.05577,3413.1727,1.04817,1.00632
3411.24435,1.05337,1.05602,3411.24435,1.04887,1.00659
3409.31601,1.05359,1.05618,3409.31601,1.04946,1.00664
3407.38766,1.05353,1.05618,3407.38766,1.04972,1.00643
3405.45931,1.05341,1.05613,3405.45931,1.04979,1.00631
3403.53097,1.0534,1.0561,3403.53097,1.05005,1.00664
3401.60262,1.0535,1.05607,3401.60262,1.0504,1.0071
3399.67427,1.05392,1.05644,3399.67427,1.05041,1.00706
3397.74593,1.05405,1.05651,3397.74593,1.05026,1.00646
3395.81758,1.05397,1.05646,3395.81758,1.05014,1.00602
3393.88924,1.05368,1.0563,3393.88924,1.05006,1.00602
3391.96089,1.05345,1.05614,3391.96089,1.04999,1.00607
3390.03254,1.05349,1.05604,3390.03254,1.04999,1.00587
3388.1042,1.05364,1.056,3388.1042,1.05003,1.00553
3386.17585,1.05375,1.05608,3386.17585,1.0501,1.00534
3384.24751,1.05381,1.05612,3384.24751,1.0502,1.00527
3382.31916,1.05375,1.05599,3382.31916,1.05021,1.00514
3380.39081,1.05362,1.05584,3380.39081,1.05009,1.00506
3378.46247,1.05356,1.05586,3378.46247,1.05003,1.00511
3376.53412,1.0537,1.05605,3376.53412,1.05018,1.00519
3374.60577,1.05398,1.05632,3374.60577,1.05051,1.00529
3372.67743,1.05409,1.05644,3372.67743,1.05077,1.00553
3370.74908,1.05398,1.05629,3370.74908,1.05083,1.00587
3368.82074,1.05384,1.05605,3368.82074,1.05069,1.00602
3366.89239,1.05373,1.05587,3366.89239,1.05043,1.00584
3364.96404,1.05363,1.0558,3364.96404,1.05025,1.00556
3363.0357,1.05359,1.05589,3363.0357,1.05028,1.00545
3361.10735,1.05368,1.05608,3361.10735,1.05039,1.00548
3359.17901,1.05381,1.05613,3359.17901,1.05046,1.00541
3357.25066,1.05377,1.05598,3357.25066,1.05046,1.00529
3355.32231,1.05359,1.05583,3355.32231,1.05044,1.00537
3353.39397,1.05353,1.05574,3353.39397,1.05041,1.00572
3351.46562,1.05358,1.05565,3351.46562,1.05035,1.00608
3349.53727,1.05363,1.05567,3349.53727,1.05042,1.00619
3347.60893,1.05363,1.05582,3347.60893,1.05057,1.00602
3345.68058,1.05358,1.05593,3345.68058,1.05052,1.00583
3343.75224,1.05353,1.05594,3343.75224,1.05029,1.00582
3341.82389,1.05362,1.05595,3341.82389,1.05016,1.00601
3339.89554,1.05373,1.05595,3339.89554,1.05016,1.00623
3337.9672,1.0537,1.05592,3337.9672,1.05014,1.0063
3336.03885,1.05356,1.05591,3336.03885,1.05003,1.0062
3334.11051,1.05354,1.05597,3334.11051,1.05003,1.00616
3332.18216,1.05368,1.05607,3332.18216,1.05025,1.00628
3330.25381,1.05375,1.05609,3330.25381,1.05046,1.00638
3328.32547,1.05376,1.05602,3328.32547,1.05053,1.00647
3326.39712,1.05382,1.05596,3326.39712,1.05062,1.00664
3324.46877,1.05394,1.056,3324.46877,1.05083,1.00682
3322.54043,1.05403,1.05611,3322.54043,1.05104,1.0069
3320.61208,1.054,1.05611,3320.61208,1.05103,1.00683
3318.68374,1.05383,1.05597,3318.68374,1.05083,1.00666
3316.75539,1.0536,1.05578,3316.75539,1.05066,1.00652
3314.82704,1.05344,1.05561,3314.82704,1.05055,1.00648
3312.8987,1.05347,1.05553,3312.8987,1.05047,1.00662
3310.97035,1.05365,1.05559,3310.97035,1.05047,1.00698
3309.04201,1.05374,1.05567,3309.04201,1.05053,1.00734
3307.11366,1.05367,1.05563,3307.11366,1.05059,1.00749
3305.18531,1.05358,1.05554,3305.18531,1.05055,1.00751
3303.25697,1.05361,1.05552,3303.25697,1.05046,1.00746
3301.32862,1.05368,1.05555,3301.32862,1.05043,1.00733
3299.40027,1.05367,1.05552,3299.40027,1.05044,1.00719
3297.47193,1.05359,1.05545,3297.47193,1.05038,1.00718
3295.54358,1.05355,1.0554,3295.54358,1.0503,1.00731
3293.61524,1.05359,1.05531,3293.61524,1.05026,1.00745
3291.68689,1.05367,1.05515,3291.68689,1.05018,1.00749
3289.75854,1.05369,1.05505,3289.75854,1.05003,1.00749
3287.8302,1.05362,1.05512,3287.8302,1.04996,1.00757
3285.90185,1.05351,1.05518,3285.90185,1.05002,1.00769
3283.97351,1.05337,1.05513,3283.97351,1.05011,1.00781
3282.04516,1.05327,1.05515,3282.04516,1.05021,1.008
3280.11681,1.05318,1.05526,3280.11681,1.05031,1.00822
3278.18847,1.05317,1.05525,3278.18847,1.05032,1.00829
3276.26012,1.05324,1.05512,3276.26012,1.05028,1.00822
3274.33177,1.05335,1.055,3274.33177,1.0503,1.00822
3272.40343,1.05346,1.0549,3272.40343,1.05033,1.00836
3270.47508,1.05352,1.05482,3270.47508,1.05028,1.00852
3268.54674,1.05339,1.05481,3268.54674,1.05018,1.00848
3266.61839,1.05316,1.05485,3266.61839,1.05011,1.00827
3264.69004,1.05306,1.05486,3264.69004,1.05005,1.00814
3262.7617,1.05303,1.05473,3262.7617,1.0499,1.00813
3260.83335,1.05296,1.05453,3260.83335,1.04971,1.00808
3258.90501,1.05292,1.0545,3258.90501,1.04973,1.00812
3256.97666,1.05299,1.05464,3256.97666,1.04985,1.00829
3255.04831,1.05308,1.0547,3255.04831,1.04988,1.00837
3253.11997,1.05317,1.05469,3253.11997,1.04988,1.00835
3251.19162,1.05323,1.05474,3251.19162,1.04991,1.00841
3249.26327,1.0532,1.05474,3249.26327,1.04992,1.00854
3247.33493,1.05318,1.05463,3247.33493,1.04992,1.00861
3245.40658,1.05316,1.05447,3245.40658,1.04986,1.00857
3243.47824,1.05302,1.05428,3243.47824,1.04969,1.00853
3241.54989,1.05277,1.05414,3241.54989,1.04948,1.00851
3239.62154,1.05255,1.05412,3239.62154,1.04936,1.00851
3237.6932,1.05242,1.05414,3237.6932,1.04937,1.00858
3235.76485,1.05228,1.05397,3235.76485,1.04935,1.00863
3233.83651,1.05217,1.05371,3233.83651,1.04926,1.0085
3231.90816,1.05213,1.05357,3231.90816,1.04916,1.00824
3229.97981,1.05214,1.05355,3229.97981,1.04908,1.00808
3228.05147,1.0522,1.05355,3228.05147,1.04909,1.00809
3226.12312,1.05225,1.05352,3226.12312,1.04916,1.00814
3224.19477,1.05221,1.0534,3224.19477,1.04917,1.00812
3222.26643,1.05212,1.05329,3222.26643,1.04922,1.00813
3220.33808,1.05207,1.05324,3220.33808,1.04942,1.00812
3218.40974,1.05208,1.0532,3218.40974,1.04956,1.00801
3216.48139,1.0522,1.05322,3216.48139,1.0495,1.00788
3214.55304,1.05234,1.05332,3214.55304,1.04944,1.00791
3212.6247,1.05241,1.05347,3212.6247,1.04949,1.00813
3210.69635,1.0525,1.05365,3210.69635,1.04964,1.00842
3208.76801,1.05266,1.05382,3208.76801,1.04975,1.00863
3206.83966,1.05287,1.05399,3206.83966,1.04981,1.00877
3204.91131,1.05308,1.05419,3204.91131,1.04997,1.00895
3202.98297,1.05315,1.05428,3202.98297,1.05017,1.00903
3201.05462,1.05307,1.05421,3201.05462,1.05025,1.00889
3199.12627,1.05307,1.05415,3199.12627,1.05026,1.00878
3197.19793,1.05321,1.05414,3197.19793,1.0503,1.00884
3195.26958,1.05329,1.05412,3195.26958,1.05034,1.00894
3193.34124,1.0533,1.05414,3193.34124,1.05041,1.00906
3191.41289,1.05334,1.05428,3191.41289,1.05046,1.00922
3189.48454,1.05338,1.05445,3189.48454,1.05051,1.00933
3187.5562,1.05341,1.05455,3187.5562,1.05061,1.00934
3185.62785,1.05342,1.05459,3185.62785,1.05072,1.00926
3183.69951,1.05341,1.05461,3183.69951,1.05072,1.00916
3181.77116,1.05349,1.05464,3181.77116,1.05071,1.00917
3179.84281,1.05369,1.05472,3179.84281,1.05081,1.00937
3177.91447,1.05383,1.05482,3177.91447,1.05097,1.00964
3175.98612,1.05377,1.05481,3175.98612,1.05109,1.00978
3174.05777,1.05361,1.0546,3174.05777,1.05114,1.0097
3172.12943,1.0535,1.05435,3172.12943,1.05111,1.0095
3170.20108,1.05356,1.05426,3170.20108,1.05105,1.00939
3168.27274,1.05371,1.05435,3168.27274,1.05099,1.00946
3166.34439,1.05378,1.0545,3166.34439,1.05096,1.00964
3164.41604,1.05384,1.05461,3164.41604,1.051,1.00982
3162.4877,1.05392,1.05462,3162.4877,1.05106,1.00991
3160.55935,1.05388,1.05456,3160.55935,1.05106,1.00984
3158.63101,1.05375,1.05452,3158.63101,1.05099,1.00967
3156.70266,1.05367,1.05453,3156.70266,1.05093,1.00956
3154.77431,1.05373,1.05458,3154.77431,1.05095,1.00958
3152.84597,1.05379,1.05466,3152.84597,1.05103,1.00968
3150.91762,1.05374,1.0547,3150.91762,1.05116,1.00974
3148.98927,1.05369,1.05468,3148.98927,1.05131,1.00967
3147.06093,1.05374,1.0546,3147.06093,1.05135,1.00951
3145.13258,1.05382,1.05446,3145.13258,1.05126,1.00932
3143.20424,1.05384,1.05431,3143.20424,1.05117,1.00915
3141.27589,1.05386,1.05431,3141.27589,1.05117,1.00903
3139.34754,1.05397,1.05446,3139.34754,1.05117,1.0089
3137.4192,1.0541,1.05461,3137.4192,1.05114,1.00872
3135.49085,1.05422,1.05475,3135.49085,1.05115,1.00855
3133.56251,1.05431,1.05486,3133.56251,1.05119,1.00839
3131.63416,1.05428,1.05481,3131.63416,1.05116,1.00815
3129.70581,1.05418,1.05473,3129.70581,1.05114,1.00785
3127.77747,1.05419,1.05481,3127.77747,1.05123,1.00747
3125.84912,1.05435,1.05496,3125.84912,1.05141,1.00701
3123.92077,1.0545,1.055,3123.92077,1.05154,1.00651
3121.99243,1.05449,1.0549,3121.99243,1.05152,1.00595
3120.06408,1.05438,1.05478,3120.06408,1.05141,1.0053
3118.13574,1.05438,1.05479,3118.13574,1.05137,1.00468
3116.20739,1.05457,1.0549,3116.20739,1.05142,1.00417
3114.27904,1.05473,1.05497,3114.27904,1.05143,1.00366
3112.3507,1.05474,1.05497,3112.3507,1.05135,1.0031
3110.42235,1.05475,1.05505,3110.42235,1.05126,1.00259
3108.49401,1.05484,1.05519,3108.49401,1.0512,1.00218
3106.56566,1.0549,1.0553,3106.56566,1.05116,1.00169
3104.63731,1.05493,1.05542,3104.63731,1.05106,1.00106
3102.70897,1.05501,1.05557,3102.70897,1.05096,1.00033
3100.78062,1.05516,1.05568,3100.78062,1.05102,0.99951
3098.85227,1.05519,1.05567,3098.85227,1.05126,0.99861
3096.92393,1.05509,1.05563,3096.92393,1.0515,0.99774
3094.99558,1.05507,1.05568,3094.99558,1.0517,0.99717
3093.06724,1.05522,1.05581,3093.06724,1.05191,0.99711
3091.13889,1.05536,1.0559,3091.13889,1.05205,0.99742
3089.21054,1.05541,1.05595,3089.21054,1.05201,0.9978
3087.2822,1.05537,1.056,3087.2822,1.05179,0.9981
3085.35385,1.05521,1.056,3085.35385,1.05147,0.99831
3083.42551,1.055,1.05591,3083.42551,1.05121,0.99847
3081.49716,1.05489,1.05585,3081.49716,1.05113,0.99857
3079.56881,1.05491,1.05589,3079.56881,1.05114,0.99857
3077.64047,1.05499,1.05592,3077.64047,1.05117,0.99848
3075.71212,1.05504,1.0559,3075.71212,1.05126,0.99839
3073.78377,1.05501,1.05586,3073.78377,1.05128,0.99829
3071.85543,1.0549,1.05584,3071.85543,1.05116,0.99822
3069.92708,1.05486,1.05587,3069.92708,1.05106,0.99834
3067.99874,1.05499,1.05594,3067.99874,1.05109,0.99864
3066.07039,1.05519,1.05595,3066.07039,1.05118,0.99897
3064.14204,1.05531,1.05581,3064.14204,1.05127,0.99928
3062.2137,1.05539,1.05562,3062.2137,1.05135,0.99961
3060.28535,1.0554,1.05553,3060.28535,1.05127,0.99985
3058.35701,1.05527,1.05553,3058.35701,1.05095,0.99989
3056.42866,1.05506,1.05553,3056.42866,1.05059,0.99979
3054.50031,1.05491,1.05551,3054.50031,1.0504,0.99974
3052.57197,1.05484,1.05545,3052.57197,1.05048,0.9998
3050.64362,1.05481,1.0554,3050.64362,1.05084,0.99996
3048.71527,1.05473,1.05544,3048.71527,1.05141,1.00021
3046.78693,1.05459,1.05549,3046.78693,1.05199,1.00055
3044.85858,1.05451,1.05544,3044.85858,1.05235,1.00086
3042.93024,1.05453,1.05534,3042.93024,1.05246,1.00104
3041.00189,1.05454,1.05524,3041.00189,1.05243,1.00105
3039.07354,1.05447,1.0552,3039.07354,1.05238,1.00109
3037.1452,1.0544,1.0553,3037.1452,1.05239,1.0014
3035.21685,1.05444,1.0555,3035.21685,1.05247,1.00193
3033.28851,1.05454,1.05572,3033.28851,1.05251,1.00245
3031.36016,1.05455,1.05575,3031.36016,1.05229,1.00285
3029.43181,1.05435,1.05552,3029.43181,1.05175,1.00328
3027.50347,1.05405,1.0552,3027.50347,1.05112,1.00394
3025.57512,1.05377,1.05497,3025.57512,1.05055,1.00478
3023.64677,1.05351,1.05486,3023.64677,1.04992,1.00556
3021.71843,1.05324,1.05474,3021.71843,1.0491,1.00618
3019.79008,1.05306,1.05462,3019.79008,1.048,1.00675
3017.86174,1.05296,1.05451,3017.86174,1.04677,1.00729
3015.93339,1.0528,1.05444,3015.93339,1.04568,1.00775
3014.00504,1.05252,1.05433,3014.00504,1.04495,1.00809
3012.0767,1.0522,1.05414,3012.0767,1.04457,1.00818
3010.14835,1.05188,1.05392,3010.14835,1.04435,1.00792
3008.22001,1.0515,1.05373,3008.22001,1.0441,1.00743
3006.29166,1.05103,1.05353,3006.29166,1.04378,1.00705
3004.36331,1.05054,1.05329,3004.36331,1.04339,1.00688
3002.43497,1.04999,1.05295,3002.43497,1.04299,1.00682
3000.50662,1.04931,1.05252,3000.50662,1.0426,1.00676
2998.57827,1.04848,1.0521,2998.57827,1.04214,1.00666
2996.64993,1.04735,1.05146,2996.64993,1.04151,1.0065
2994.72158,1.04599,1.05066,2994.72158,1.0407,1.00642
2992.79324,1.04443,1.04973,2992.79324,1.03991,1.00642
2990.86489,1.04263,1.04863,2990.86489,1.03918,1.00621
2988.93654,1.04056,1.04727,2988.93654,1.03847,1.00587
2987.0082,1.03816,1.04557,2987.0082,1.03773,1.00565
2985.07985,1.03538,1.04344,2985.07985,1.03689,1.00558
2983.1515,1.03215,1.04078,2983.1515,1.03586,1.00558
2981.22316,1.0284,1.03743,2981.22316,1.03464,1.0055
2979.29481,1.02418,1.03321,2979.29481,1.0333,1.0052
2977.36647,1.01963,1.02776,2977.36647,1.03178,1.00476
2975.43812,1.01464,1.0206,2975.43812,1.02983,1.00414
2973.50977,1.00903,1.01148,2973.50977,1.0275,1.00324
2971.58143,1.00289,1.00054,2971.58143,1.02545,1.00216
2969.65308,0.99653,0.98809,2969.65308,1.0244,1.00109
2967.72474,0.99028,0.9749,2967.72474,1.02446,0.99994
2965.79639,0.9847,0.96262,2965.79639,1.02517,0.99857
2963.86804,0.98071,0.95384,2963.86804,1.02605,0.99725
2961.9397,0.97914,0.95128,2961.9397,1.02709,0.99634
2960.01135,0.98017,0.95625,2960.01135,1.02836,0.99584
2958.083,0.98321,0.96753,2958.083,1.02966,0.9955
2956.15466,0.98742,0.98205,2956.15466,1.03084,0.99517
2954.22631,0.99212,0.99668,2954.22631,1.03209,0.99478
2952.29797,0.99676,1.0095,2952.29797,1.03358,0.99416
2950.36962,1.00096,1.01992,2950.36962,1.03527,0.99334
2948.44127,1.00439,1.02799,2948.44127,1.03704,0.99247
2946.51293,1.00662,1.03396,2946.51293,1.03876,0.99147
2944.58458,1.00751,1.03828,2944.58458,1.04038,0.99024
2942.65624,1.00731,1.04149,2942.65624,1.0419,0.98896
2940.72789,1.00627,1.04397,2940.72789,1.04324,0.98774
2938.79954,1.00467,1.04595,2938.79954,1.04439,0.98657
2936.8712,1.0029,1.04767,2936.8712,1.04548,0.98544
2934.94285,1.00121,1.04914,2934.94285,1.0465,0.98432
2933.0145,0.99986,1.05022,2933.0145,1.0473,0.98325
2931.08616,0.99912,1.05101,2931.08616,1.04779,0.98239
2929.15781,0.99895,1.05164,2929.15781,1.04807,0.98181
2927.22947,0.99929,1.0521,2927.22947,1.04836,0.98143
2925.30112,1.00007,1.05228,2925.30112,1.04868,0.98118
2923.37277,1.00092,1.05206,2923.37277,1.0487,0.98107
2921.44443,1.00148,1.05141,2921.44443,1.04824,0.98114
2919.51608,1.00177,1.05048,2919.51608,1.04745,0.98156
2917.58774,1.00188,1.04939,2917.58774,1.04656,0.98251
2915.65939,1.00199,1.04826,2915.65939,1.04569,0.98401
2913.73104,1.00245,1.04708,2913.73104,1.04476,0.98578
2911.8027,1.00334,1.04566,2911.8027,1.04359,0.98748
2909.87435,1.00453,1.044,2909.87435,1.04231,0.98898
2907.946,1.00607,1.04238,2907.946,1.04139,0.99022
2906.01766,1.00817,1.04121,2906.01766,1.04127,0.99122
2904.08931,1.01098,1.04082,2904.08931,1.04204,0.99217
2902.16097,1.01436,1.04135,2902.16097,1.0433,0.99315
2900.23262,1.01796,1.04263,2900.23262,1.04453,0.99403
2898.30427,1.02143,1.04421,2898.30427,1.04544,0.99481
2896.37593,1.02458,1.04573,2896.37593,1.04603,0.99553
2894.44758,1.02727,1.04709,2894.44758,1.04636,0.99623
2892.51924,1.02949,1.04832,2892.51924,1.0465,0.99701
2890.59089,1.03128,1.04932,2890.59089,1.04655,0.99783
2888.66254,1.03269,1.05004,2888.66254,1.04664,0.99863
2886.7342,1.03366,1.0507,2886.7342,1.04685,0.9994
2884.80585,1.03409,1.05132,2884.80585,1.04713,1.00008
2882.8775,1.03383,1.05169,2882.8775,1.04732,1.00054
2880.94916,1.03293,1.05185,2880.94916,1.04746,1.00078
2879.02081,1.03164,1.05214,2879.02081,1.04775,1.00092
2877.09247,1.0303,1.05271,2877.09247,1.04824,1.00105
2875.16412,1.02922,1.05335,2875.16412,1.04869,1.00118
2873.23577,1.0286,1.05384,2873.23577,1.04904,1.00113
2871.30743,1.02859,1.05413,2871.30743,1.04932,1.00073
2869.37908,1.0291,1.05431,2869.37908,1.04958,1.00009
2867.45074,1.02982,1.05455,2867.45074,1.0499,0.9994
2865.52239,1.0303,1.05492,2865.52239,1.05037,0.99869
2863.59404,1.03031,1.05531,2863.59404,1.05082,0.99793
2861.6657,1.03005,1.05562,2861.6657,1.05117,0.99713
2859.73735,1.02993,1.05591,2859.73735,1.05153,0.99634
2857.809,1.03029,1.05618,2857.809,1.05186,0.99561
2855.88066,1.03131,1.05636,2855.88066,1.0521,0.99503
2853.95231,1.03292,1.05642,2853.95231,1.05229,0.99467
2852.02397,1.03485,1.05632,2852.02397,1.05238,0.9945
2850.09562,1.03687,1.05614,2850.09562,1.05236,0.99477
2848.16727,1.0389,1.05597,2848.16727,1.05239,0.99591
2846.23893,1.04091,1.0558,2846.23893,1.05252,0.99789
2844.31058,1.0428,1.05565,2844.31058,1.05263,1.00012
2842.38224,1.04449,1.05554,2842.38224,1.05263,1.00216
2840.45389,1.04597,1.0554,2840.45389,1.05259,1.0039
2838.52554,1.04725,1.05524,2838.52554,1.05259,1.00532
2836.5972,1.04833,1.05518,2836.5972,1.05263,1.00643
2834.66885,1.04921,1.05522,2834.66885,1.05271,1.00737
2832.7405,1.04989,1.05522,2832.7405,1.05284,1.0082
2830.81216,1.05051,1.0552,2830.81216,1.05304,1.00891
2828.88381,1.05107,1.05523,2828.88381,1.05321,1.00947
2826.95547,1.05136,1.05522,2826.95547,1.05322,1.00994
2825.02712,1.05134,1.05514,2825.02712,1.05316,1.01037
2823.09877,1.0512,1.05508,2823.09877,1.05314,1.01072
2821.17043,1.05102,1.05508,2821.17043,1.05316,1.01097
2819.24208,1.05089,1.05506,2819.24208,1.05314,1.01114
2817.31374,1.05094,1.055,2817.31374,1.05311,1.01128
2815.38539,1.0512,1.05497,2815.38539,1.05315,1.01142
2813.45704,1.05162,1.05497,2813.45704,1.05323,1.01153
2811.5287,1.05212,1.05494,2811.5287,1.05326,1.01159
2809.60035,1.05261,1.05492,2809.60035,1.05331,1.01164
2807.672,1.053,1.05491,2807.672,1.0534,1.01167
2805.74366,1.05328,1.05486,2805.74366,1.05345,1.01161
2803.81531,1.05346,1.05477,2803.81531,1.05344,1.01152
2801.88697,1.05358,1.0547,2801.88697,1.05346,1.01149
2799.95862,1.05368,1.05468,2799.95862,1.05358,1.01151
2798.03027,1.05383,1.05475,2798.03027,1.05374,1.01156
2796.10193,1.054,1.05486,2796.10193,1.05384,1.01153
2794.17358,1.05413,1.0549,2794.17358,1.05387,1.01135
2792.24524,1.05432,1.05499,2792.24524,1.05394,1.01119
2790.31689,1.05461,1.05524,2790.31689,1.05413,1.01112
2788.38854,1.0548,1.05552,2788.38854,1.05431,1.01101
2786.4602,1.05482,1.05569,2786.4602,1.05437,1.01078
2784.53185,1.05483,1.05578,2784.53185,1.05436,1.01048
2782.6035,1.05493,1.05589,2782.6035,1.05441,1.01022
2780.67516,1.05502,1.05606,2780.67516,1.0545,1.01007
2778.74681,1.05502,1.0562,2778.74681,1.05454,1.01006
2776.81847,1.05498,1.05625,2776.81847,1.05448,1.01017
2774.89012,1.05506,1.05636,2774.89012,1.05445,1.01038
2772.96177,1.05523,1.05655,2772.96177,1.05447,1.01066
2771.03343,1.05533,1.05668,2771.03343,1.05445,1.01093
2769.10508,1.05534,1.05679,2769.10508,1.05443,1.01119
2767.17674,1.05534,1.05693,2767.17674,1.05452,1.01142
2765.24839,1.05531,1.05697,2765.24839,1.0546,1.01158
2763.32004,1.05523,1.05695,2763.32004,1.05459,1.01167
2761.3917,1.05519,1.05696,2761.3917,1.0546,1.01179
2759.46335,1.05522,1.057,2759.46335,1.05461,1.01193
2757.535,1.05523,1.05697,2757.535,1.05459,1.012
2755.60666,1.05516,1.05689,2755.60666,1.0545,1.01201
2753.67831,1.05511,1.05688,2753.67831,1.05445,1.01205
2751.74997,1.05514,1.05696,2751.74997,1.05452,1.01219
2749.82162,1.05513,1.05706,2749.82162,1.05456,1.01228
2747.89327,1.05506,1.05715,2747.89327,1.05448,1.01225
2745.96493,1.05502,1.05722,2745.96493,1.05443,1.01218
2744.03658,1.05497,1.05719,2744.03658,1.05444,1.01213
2742.10824,1.05486,1.05711,2742.10824,1.05445,1.01213
2740.17989,1.05484,1.05711,2740.17989,1.05449,1.01221
2738.25154,1.05497,1.05716,2738.25154,1.05464,1.01237
2736.3232,1.05508,1.05711,2736.3232,1.05489,1.01248
2734.39485,1.05507,1.05699,2734.39485,1.05507,1.0125
2732.4665,1.05502,1.05698,2732.4665,1.0551,1.01249
2730.53816,1.05504,1.05714,2730.53816,1.05506,1.01253
2728.60981,1.05515,1.05735,2728.60981,1.05513,1.01265
2726.68147,1.05527,1.05744,2726.68147,1.05525,1.01279
2724.75312,1.05531,1.05742,2724.75312,1.05529,1.01287
2722.82477,1.05532,1.05737,2722.82477,1.05527,1.01294
2720.89643,1.05528,1.05728,2720.89643,1.05528,1.01295
2718.96808,1.05521,1.05717,2718.96808,1.0553,1.01287
2717.03974,1.05522,1.05712,2717.03974,1.0553,1.01284
2715.11139,1.05539,1.05715,2715.11139,1.05531,1.01296
2713.18304,1.05555,1.05721,2713.18304,1.05533,1.01315
2711.2547,1.05555,1.05725,2711.2547,1.05534,1.01321
2709.32635,1.05548,1.05725,2709.32635,1.05538,1.01317
2707.398,1.05544,1.05727,2707.398,1.05552,1.01321
2705.46966,1.05542,1.05727,2705.46966,1.05562,1.01334
2703.54131,1.05539,1.05725,2703.54131,1.05561,1.01346
2701.61297,1.05537,1.05722,2701.61297,1.05557,1.01353
2699.68462,1.05538,1.05719,2699.68462,1.05551,1.01355
2697.75627,1.05536,1.05715,2697.75627,1.05545,1.01355
2695.82793,1.05533,1.05712,2695.82793,1.05541,1.01353
2693.89958,1.0554,1.0572,2693.89958,1.05544,1.01363
2691.97124,1.05549,1.05734,2691.97124,1.05543,1.01378
2690.04289,1.05542,1.05732,2690.04289,1.05527,1.01389
2688.11454,1.05535,1.05724,2688.11454,1.05515,1.01397
2686.1862,1.05546,1.05727,2686.1862,1.05521,1.01405
2684.25785,1.0556,1.05731,2684.25785,1.05528,1.01403
2682.3295,1.05559,1.05725,2682.3295,1.0553,1.01397
2680.40116,1.05548,1.05717,2680.40116,1.05535,1.01393
2678.47281,1.05539,1.05717,2678.47281,1.05544,1.01399
2676.54447,1.0554,1.05723,2676.54447,1.05551,1.01412
2674.61612,1.05547,1.05724,2674.61612,1.05557,1.01419
2672.68777,1.05553,1.05718,2672.68777,1.05563,1.01415
2670.75943,1.05557,1.0571,2670.75943,1.05569,1.0141
2668.83108,1.0556,1.05705,2668.83108,1.05569,1.01409
2666.90274,1.05558,1.05703,2666.90274,1.05567,1.01407
2664.97439,1.05555,1.05703,2664.97439,1.05569,1.01402
2663.04604,1.05555,1.057,2663.04604,1.05572,1.014
2661.1177,1.05555,1.05697,2661.1177,1.05576,1.01404
2659.18935,1.05555,1.05696,2659.18935,1.05577,1.01416
2657.261,1.05555,1.05697,2657.261,1.05573,1.01426
2655.33266,1.05558,1.05694,2655.33266,1.05565,1.01435
2653.40431,1.05564,1.057,2653.40431,1.05565,1.01444
2651.47597,1.05565,1.05712,2651.47597,1.05573,1.0145
2649.54762,1.05562,1.05719,2649.54762,1.05581,1.01451
2647.61927,1.05561,1.05721,2647.61927,1.05586,1.01451
2645.69093,1.0556,1.05723,2645.69093,1.05582,1.01454
2643.76258,1.05554,1.0572,2643.76258,1.05569,1.01463
2641.83424,1.05548,1.05718,2641.83424,1.05556,1.01473
2639.90589,1.05553,1.05721,2639.90589,1.05551,1.01481
2637.97754,1.05564,1.05727,2637.97754,1.05547,1.01483
2636.0492,1.05568,1.05733,2636.0492,1.05543,1.01478
2634.12085,1.05572,1.05743,2634.12085,1.05537,1.01472
2632.1925,1.05574,1.05752,2632.1925,1.05531,1.01469
2630.26416,1.05573,1.05752,2630.26416,1.05526,1.01469
2628.33581,1.05577,1.05749,2628.33581,1.05524,1.01469
2626.40747,1.05578,1.05752,2626.40747,1.05524,1.01468
2624.47912,1.05571,1.05752,2624.47912,1.05522,1.01464
2622.55077,1.05567,1.05749,2622.55077,1.05521,1.01458
2620.62243,1.05574,1.05751,2620.62243,1.05524,1.01456
2618.69408,1.0558,1.05754,2618.69408,1.05524,1.01458
2616.76574,1.05578,1.05748,2616.76574,1.0552,1.01461
2614.83739,1.05577,1.05738,2614.83739,1.05519,1.01461
2612.90904,1.05586,1.05738,2612.90904,1.05525,1.01458
2610.9807,1.05594,1.0575,2610.9807,1.05535,1.01455
2609.05235,1.0559,1.05762,2609.05235,1.05538,1.01448
2607.124,1.05579,1.0576,2607.124,1.05531,1.01436
2605.19566,1.05574,1.05748,2605.19566,1.05517,1.01421
2603.26731,1.05576,1.05743,2603.26731,1.05508,1.01404
2601.33897,1.05581,1.05748,2601.33897,1.05507,1.01391
2599.41062,1.0558,1.05753,2599.41062,1.05506,1.01386
2597.48227,1.05573,1.05757,2597.48227,1.05496,1.01387
2595.55393,1.05575,1.05762,2595.55393,1.05485,1.01387
2593.62558,1.05587,1.05764,2593.62558,1.05478,1.0138
2591.69724,1.05592,1.05757,2591.69724,1.05467,1.01361
2589.76889,1.05585,1.05748,2589.76889,1.05453,1.01336
2587.84054,1.05585,1.05748,2587.84054,1.05452,1.01323
2585.9122,1.05591,1.05757,2585.9122,1.05458,1.01329
2583.98385,1.05596,1.05761,2583.98385,1.05457,1.01343
2582.0555,1.056,1.05758,2582.0555,1.05455,1.01355
2580.12716,1.056,1.05751,2580.12716,1.05455,1.01361
2578.19881,1.05596,1.0575,2578.19881,1.05454,1.01364
2576.27047,1.056,1.05758,2576.27047,1.05455,1.01373
2574.34212,1.05607,1.05768,2574.34212,1.0546,1.01389
2572.41377,1.056,1.0577,2572.41377,1.05462,1.01399
2570.48543,1.05586,1.05766,2570.48543,1.05457,1.01404
2568.55708,1.05583,1.05765,2568.55708,1.05453,1.01416
2566.62874,1.05589,1.05763,2566.62874,1.05453,1.01432
2564.70039,1.05593,1.05762,2564.70039,1.05455,1.01442
2562.77204,1.05592,1.05767,2562.77204,1.05458,1.0145
2560.8437,1.0559,1.05773,2560.8437,1.0546,1.01458
2558.91535,1.05591,1.05774,2558.91535,1.0546,1.01459
2556.987,1.05594,1.05772,2556.987,1.0546,1.0145
2555.05866,1.05601,1.05773,2555.05866,1.05461,1.01444
2553.13031,1.0561,1.05772,2553.13031,1.05459,1.01445
2551.20197,1.05621,1.05772,2551.20197,1.05457,1.01453
2549.27362,1.05631,1.05775,2549.27362,1.0546,1.01466
2547.34527,1.0563,1.05775,2547.34527,1.05458,1.01471
2545.41693,1.05621,1.0577,2545.41693,1.05447,1.01459
2543.48858,1.05613,1.05767,2543.48858,1.05442,1.01441
2541.56024,1.05614,1.05767,2541.56024,1.05448,1.01426
2539.63189,1.05618,1.05768,2539.63189,1.05457,1.01411
2537.70354,1.05614,1.05763,2537.70354,1.05456,1.01395
2535.7752,1.05602,1.05753,2535.7752,1.05448,1.01378
2533.84685,1.05596,1.05744,2533.84685,1.05441,1.01369
2531.9185,1.05605,1.05739,2531.9185,1.05446,1.01368
2529.99016,1.05623,1.05743,2529.99016,1.05462,1.01362
2528.06181,1.05632,1.05751,2528.06181,1.05474,1.01346
2526.13347,1.05628,1.05748,2526.13347,1.05479,1.01323
2524.20512,1.05622,1.05737,2524.20512,1.05479,1.01304
2522.27677,1.05618,1.05728,2522.27677,1.05478,1.01284
2520.34843,1.05616,1.05723,2520.34843,1.05482,1.01258
2518.42008,1.05622,1.05724,2518.42008,1.05496,1.01235
2516.49173,1.05632,1.05732,2516.49173,1.05513,1.01219
2514.56339,1.05638,1.05735,2514.56339,1.05519,1.012
2512.63504,1.05637,1.05727,2512.63504,1.05519,1.01178
2510.7067,1.05635,1.05715,2510.7067,1.05522,1.0116
2508.77835,1.05638,1.05711,2508.77835,1.05523,1.01154
2506.85,1.05642,1.05709,2506.85,1.0552,1.01156
2504.92166,1.05644,1.05702,2504.92166,1.05524,1.01155
2502.99331,1.05643,1.05688,2502.99331,1.05534,1.01152
2501.06497,1.0564,1.05674,2501.06497,1.05542,1.01155
2499.13662,1.05639,1.05669,2499.13662,1.05544,1.01163
2497.20827,1.05643,1.05676,2497.20827,1.05546,1.01173
2495.27993,1.05645,1.05688,2495.27993,1.05551,1.01179
2493.35158,1.05641,1.05694,2493.35158,1.05553,1.01178
2491.42323,1.0564,1.05695,2491.42323,1.05548,1.01177
2489.49489,1.05646,1.05704,2489.49489,1.05549,1.01184
2487.56654,1.05655,1.05721,2487.56654,1.05562,1.01196
2485.6382,1.0566,1.05743,2485.6382,1.05584,1.01209
2483.70985,1.05661,1.05758,2483.70985,1.05599,1.01222
2481.7815,1.05656,1.05752,2481.7815,1.05596,1.01228
2479.85316,1.0565,1.05736,2479.85316,1.05586,1.01227
2477.92481,1.05655,1.05733,2477.92481,1.05589,1.01233
2475.99647,1.05662,1.05742,2475.99647,1.05604,1.01243
2474.06812,1.05666,1.05747,2474.06812,1.05614,1.01251
2472.13977,1.05673,1.05751,2472.13977,1.05622,1.01259
2470.21143,1.05678,1.05756,2470.21143,1.05631,1.01271
2468.28308,1.05678,1.05759,2468.28308,1.05635,1.01283
2466.35473,1.05681,1.05758,2466.35473,1.05635,1.01291
2464.42639,1.05684,1.05759,2464.42639,1.05637,1.013
2462.49804,1.05681,1.05767,2462.49804,1.05644,1.01312
2460.5697,1.05679,1.05773,2460.5697,1.05652,1.01322
2458.64135,1.05677,1.05766,2458.64135,1.05656,1.01326
2456.713,1.05675,1.05755,2456.713,1.05658,1.01323
2454.78466,1.05678,1.05755,2454.78466,1.0566,1.0132
2452.85631,1.05682,1.05761,2452.85631,1.05664,1.01323
2450.92797,1.05684,1.05763,2450.92797,1.05666,1.01321
2448.99962,1.05687,1.0576,2448.99962,1.05662,1.0131
2447.07127,1.05685,1.05752,2447.07127,1.0566,1.013
2445.14293,1.05678,1.05746,2445.14293,1.05659,1.01299
2443.21458,1.05674,1.05744,2443.21458,1.05653,1.01302
2441.28623,1.05674,1.05741,2441.28623,1.05645,1.01304
2439.35789,1.05669,1.05735,2439.35789,1.05641,1.01307
2437.42954,1.0566,1.05732,2437.42954,1.05641,1.01315
2435.5012,1.05662,1.05736,2435.5012,1.0564,1.01328
2433.57285,1.05676,1.05742,2433.57285,1.05637,1.01346
2431.6445,1.05683,1.05753,2431.6445,1.05632,1.01364
2429.71616,1.05675,1.05767,2429.71616,1.05624,1.01383
2427.78781,1.05667,1.0577,2427.78781,1.05615,1.01403
2425.85947,1.0566,1.05752,2425.85947,1.05605,1.01416
2423.93112,1.05653,1.05731,2423.93112,1.05594,1.0142
2422.00277,1.05652,1.05729,2422.00277,1.05586,1.01426
2420.07443,1.05658,1.05741,2420.07443,1.05587,1.01438
2418.14608,1.05664,1.0575,2418.14608,1.05597,1.0145
2416.21773,1.05667,1.05755,2416.21773,1.05603,1.01462
2414.28939,1.05665,1.05757,2414.28939,1.05593,1.01458
2412.36104,1.05654,1.0575,2412.36104,1.05575,1.0144
2410.4327,1.05641,1.05741,2410.4327,1.05563,1.01424
2408.50435,1.05632,1.05736,2408.50435,1.05554,1.01416
2406.576,1.05633,1.05735,2406.576,1.05543,1.01415
2404.64766,1.05639,1.05733,2404.64766,1.05534,1.0142
2402.71931,1.05638,1.05731,2402.71931,1.05529,1.01422
2400.79097,1.05636,1.0573,2400.79097,1.05521,1.01417
2398.86262,1.05665,1.05762,2398.86262,1.05486,1.01411
2396.93427,1.05664,1.05751,2396.93427,1.05496,1.01428
2395.00593,1.05643,1.05718,2395.00593,1.05533,1.01454
2393.07758,1.05615,1.05678,2393.07758,1.05572,1.01475
2391.14923,1.05578,1.05631,2391.14923,1.05606,1.0149
2389.22089,1.05532,1.05575,2389.22089,1.05636,1.01504
2387.29254,1.0548,1.05507,2387.29254,1.05657,1.01517
2385.3642,1.0542,1.05428,2385.3642,1.05653,1.01513
2383.43585,1.05355,1.05351,2383.43585,1.056,1.01473
2381.5075,1.05301,1.05302,2381.5075,1.05484,1.01395
2379.57916,1.05279,1.05302,2379.57916,1.05345,1.01307
2377.65081,1.05288,1.05332,2377.65081,1.0526,1.01256
2375.72247,1.05295,1.0535,2375.72247,1.05288,1.01267
2373.79412,1.05288,1.05343,2373.79412,1.05415,1.01339
2371.86577,1.05285,1.05335,2371.86577,1.05577,1.01446
2369.93743,1.05323,1.05371,2369.93743,1.0569,1.01545
2368.00908,1.05412,1.05464,2368.00908,1.05754,1.01627
2366.08073,1.05544,1.05605,2366.08073,1.058,1.01709
2364.15239,1.05687,1.05759,2364.15239,1.05819,1.01785
2362.22404,1.0581,1.05885,2362.22404,1.05829,1.01846
2360.2957,1.05883,1.05951,2360.2957,1.05834,1.01873
2358.36735,1.05882,1.05966,2358.36735,1.05759,1.0182
2356.439,1.05833,1.05956,2356.439,1.05591,1.01698
2354.51066,1.05803,1.05945,2354.51066,1.05413,1.01582
2352.58231,1.05857,1.0594,2352.58231,1.05336,1.01561
2350.65397,1.0598,1.05957,2350.65397,1.05335,1.01616
2348.72562,1.0601,1.05977,2348.72562,1.05309,1.01622
2346.79727,1.05891,1.05984,2346.79727,1.05265,1.01546
2344.86893,1.05798,1.05993,2344.86893,1.0533,1.01535
2342.94058,1.05841,1.06027,2342.94058,1.05495,1.01647
2341.01223,1.05938,1.06074,2341.01223,1.05616,1.01766
2339.08389,1.06007,1.06108,2339.08389,1.05653,1.01817
2337.15554,1.0601,1.06099,2337.15554,1.05658,1.01812
2335.2272,1.05969,1.06066,2335.2272,1.0562,1.0176
2333.29885,1.05917,1.06031,2333.29885,1.0552,1.01678
2331.3705,1.05873,1.06004,2331.3705,1.05383,1.01588
2329.44216,1.05838,1.05982,2329.44216,1.05255,1.01513
2327.51381,1.05807,1.05957,2327.51381,1.0516,1.01457
2325.58547,1.05761,1.05911,2325.58547,1.05093,1.01407
2323.65712,1.05695,1.05848,2323.65712,1.05044,1.0135
2321.72877,1.05618,1.05777,2321.72877,1.05025,1.01304
2319.80043,1.05567,1.0572,2319.80043,1.05041,1.01291
2317.87208,1.05565,1.05705,2317.87208,1.05062,1.01299
2315.94373,1.05583,1.05721,2315.94373,1.05045,1.01292
2314.01539,1.05585,1.05732,2314.01539,1.04988,1.01257
2312.08704,1.05565,1.05716,2312.08704,1.0495,1.01229
2310.1587,1.05547,1.05691,2310.1587,1.04955,1.01233
2308.23035,1.05535,1.05673,2308.23035,1.05008,1.0127
2306.302,1.05522,1.05659,2306.302,1.05087,1.01322
2304.37366,1.05511,1.05646,2304.37366,1.0516,1.01366
2302.44531,1.05502,1.05635,2302.44531,1.0521,1.01397
2300.51697,1.05506,1.05638,2300.51697,1.05247,1.01427
2298.58862,1.0552,1.05658,2298.58862,1.05282,1.01458
2296.66027,1.05527,1.05676,2296.66027,1.05305,1.0148
2294.73193,1.05526,1.05684,2294.73193,1.05313,1.01492
2292.80358,1.05529,1.05685,2292.80358,1.05314,1.01505
2290.87523,1.05535,1.05686,2290.87523,1.05314,1.01517
2288.94689,1.05536,1.05685,2288.94689,1.05322,1.01524
2287.01854,1.05534,1.05681,2287.01854,1.05334,1.01526
2285.0902,1.0553,1.05677,2285.0902,1.05346,1.01528
2283.16185,1.05527,1.05675,2283.16185,1.0536,1.01533
2281.2335,1.05526,1.05676,2281.2335,1.05375,1.01542
2279.30516,1.05526,1.05674,2279.30516,1.05393,1.01551
2277.37681,1.0552,1.05666,2277.37681,1.05414,1.01558
2275.44847,1.0551,1.05654,2275.44847,1.05429,1.01566
2273.52012,1.05495,1.05638,2273.52012,1.05435,1.01575
2271.59177,1.05485,1.05624,2271.59177,1.05436,1.01587
2269.66343,1.05484,1.05615,2269.66343,1.05433,1.016
2267.73508,1.05483,1.05604,2267.73508,1.05423,1.01609
2265.80673,1.05479,1.05594,2265.80673,1.05412,1.01619
2263.87839,1.05477,1.05595,2263.87839,1.05406,1.01638
2261.95004,1.0548,1.05608,2261.95004,1.05414,1.01666
2260.0217,1.05486,1.0562,2260.0217,1.0543,1.01692
2258.09335,1.05489,1.05622,2258.09335,1.05432,1.01705
2256.165,1.05484,1.05618,2256.165,1.05414,1.01703
2254.23666,1.05479,1.05618,2254.23666,1.05396,1.01701
2252.30831,1.0547,1.05608,2252.30831,1.05394,1.01699
2250.37997,1.05478,1.05612,2250.37997,1.05374,1.01683
2248.45162,1.05546,1.05698,2248.45162,1.05282,1.01649
2246.52327,1.05515,1.05669,2246.52327,1.05326,1.01662
2244.59493,1.05492,1.05647,2244.59493,1.0537,1.01677
2242.66658,1.05474,1.05629,2242.66658,1.05404,1.01689
2240.73823,1.05456,1.05611,2240.73823,1.05424,1.01696
2238.80989,1.05435,1.05592,2238.80989,1.05437,1.01694
2236.88154,1.05418,1.05576,2236.88154,1.05454,1.01693
2234.9532,1.05413,1.05564,2234.9532,1.05474,1.01704
2233.02485,1.05413,1.05556,2233.02485,1.05486,1.01716
2231.0965,1.05403,1.05545,2231.0965,1.05483,1.01716
2229.16816,1.05391,1.05531,2229.16816,1.05482,1.0171
2227.23981,1.0539,1.05525,2227.23981,1.05495,1.01712
2225.31147,1.05396,1.05527,2225.31147,1.05511,1.01718
2223.38312,1.05394,1.05527,2223.38312,1.05516,1.01716
2221.45477,1.05384,1.05521,2221.45477,1.05512,1.01705
2219.52643,1.05374,1.05512,2219.52643,1.05509,1.01693
2217.59808,1.05366,1.05504,2217.59808,1.05512,1.01686
2215.66973,1.0536,1.05501,2215.66973,1.0552,1.01684
2213.74139,1.0536,1.05502,2213.74139,1.05528,1.01682
2211.81304,1.05361,1.055,2211.81304,1.05533,1.01681
2209.8847,1.05357,1.05491,2209.8847,1.05533,1.01683
2207.95635,1.05349,1.05484,2207.95635,1.05531,1.01691
2206.028,1.0534,1.0548,2206.028,1.05532,1.01701
2204.09966,1.05333,1.05476,2204.09966,1.05537,1.01705
2202.17131,1.05332,1.05473,2202.17131,1.05543,1.01715
2200.24297,1.05336,1.05473,2200.24297,1.05552,1.01738
2198.31462,1.05337,1.05474,2198.31462,1.0556,1.01761
2196.38627,1.05329,1.05472,2196.38627,1.05564,1.0177
2194.45793,1.05315,1.05464,2194.45793,1.05561,1.01768
2192.52958,1.05305,1.05454,2192.52958,1.05557,1.01769
2190.60123,1.053,1.05449,2190.60123,1.05558,1.0178
2188.67289,1.05287,1.05443,2188.67289,1.05554,1.0179
2186.74454,1.05271,1.05433,2186.74454,1.05543,1.01794
2184.8162,1.05262,1.05426,2184.8162,1.05535,1.01801
2182.88785,1.0525,1.05423,2182.88785,1.05533,1.01808
2180.9595,1.05238,1.0542,2180.9595,1.0553,1.01816
2179.03116,1.05237,1.05414,2179.03116,1.05525,1.0183
2177.10281,1.0524,1.05404,2177.10281,1.05522,1.01848
2175.17447,1.05235,1.05392,2175.17447,1.05519,1.01863
2173.24612,1.05229,1.05379,2173.24612,1.05511,1.01877
2171.31777,1.05229,1.05371,2171.31777,1.05504,1.01894
2169.38943,1.05232,1.05364,2169.38943,1.05496,1.01909
2167.46108,1.05235,1.05357,2167.46108,1.05488,1.01915
2165.53273,1.05238,1.05353,2165.53273,1.05481,1.01919
2163.60439,1.05245,1.05348,2163.60439,1.05476,1.01927
2161.67604,1.05253,1.05338,2161.67604,1.05468,1.01934
2159.7477,1.0526,1.05323,2159.7477,1.05456,1.01933
2157.81935,1.05259,1.05308,2157.81935,1.05439,1.01927
2155.891,1.05254,1.05297,2155.891,1.0542,1.01921
2153.96266,1.05253,1.05291,2153.96266,1.05407,1.01922
2152.03431,1.05261,1.05292,2152.03431,1.05404,1.01931
2150.10597,1.05271,1.053,2150.10597,1.05401,1.01943
2148.17762,1.05273,1.05303,2148.17762,1.05388,1.01944
2146.24927,1.0527,1.05301,2146.24927,1.05373,1.01941
2144.32093,1.05273,1.053,2144.32093,1.05367,1.01946
2142.39258,1.05278,1.05301,2142.39258,1.0536,1.01951
2140.46423,1.05277,1.05306,2140.46423,1.05347,1.01946
2138.53589,1.05274,1.05312,2138.53589,1.05339,1.01938
2136.60754,1.05276,1.0532,2136.60754,1.05338,1.01932
2134.6792,1.05282,1.05332,2134.6792,1.05338,1.01933
2132.75085,1.05285,1.05344,2132.75085,1.05333,1.01936
2130.8225,1.05287,1.05353,2130.8225,1.05325,1.01935
2128.89416,1.05289,1.05355,2128.89416,1.05316,1.01933
2126.96581,1.05285,1.05349,2126.96581,1.05304,1.01932
2125.03747,1.0528,1.05343,2125.03747,1.05288,1.01933
2123.10912,1.05281,1.05343,2123.10912,1.05277,1.01936
2121.18077,1.05285,1.05346,2121.18077,1.0527,1.01936
2119.25243,1.05283,1.05345,2119.25243,1.05262,1.01931
2117.32408,1.05274,1.05344,2117.32408,1.05255,1.01929
2115.39573,1.05266,1.05347,2115.39573,1.05252,1.01935
2113.46739,1.05269,1.05354,2113.46739,1.05252,1.01944
2111.53904,1.05272,1.05357,2111.53904,1.05249,1.01947
2109.6107,1.05264,1.05353,2109.6107,1.05241,1.01942
2107.68235,1.05253,1.05348,2107.68235,1.05236,1.01938
2105.754,1.05252,1.05346,2105.754,1.05243,1.0194
2103.82566,1.05255,1.05345,2103.82566,1.05255,1.01946
2101.89731,1.05259,1.05342,2101.89731,1.05262,1.01953
2099.96897,1.05268,1.05345,2099.96897,1.05261,1.01959
2098.04062,1.05274,1.05349,2098.04062,1.05256,1.01958
2096.11227,1.05271,1.05348,2096.11227,1.05256,1.01956
2094.18393,1.05267,1.05346,2094.18393,1.05265,1.01962
2092.25558,1.05264,1.05343,2092.25558,1.05273,1.01967
2090.32723,1.05257,1.0534,2090.32723,1.0527,1.01959
2088.39889,1.0525,1.05336,2088.39889,1.05269,1.01948
2086.47054,1.05248,1.05333,2086.47054,1.05287,1.01949
2084.5422,1.05254,1.05331,2084.5422,1.05315,1.01957
2082.61385,1.05257,1.05328,2082.61385,1.05331,1.0196
2080.6855,1.05255,1.0533,2080.6855,1.05332,1.0196
2078.75716,1.0526,1.05336,2078.75716,1.05327,1.01968
2076.82881,1.05265,1.05333,2076.82881,1.0533,1.01981
2074.90047,1.05257,1.05318,2074.90047,1.05345,1.01994
2072.97212,1.05243,1.05308,2072.97212,1.05368,1.02011
2071.04377,1.05233,1.05305,2071.04377,1.05384,1.02027
2069.11543,1.05229,1.05299,2069.11543,1.05391,1.02032
2067.18708,1.05223,1.05289,2067.18708,1.05394,1.02023
2065.25873,1.05217,1.05282,2065.25873,1.05399,1.02009
2063.33039,1.0522,1.05283,2063.33039,1.05412,1.02006
2061.40204,1.05229,1.05285,2061.40204,1.0543,1.02014
2059.4737,1.05228,1.05281,2059.4737,1.05443,1.02013
2057.54535,1.05218,1.05278,2057.54535,1.05453,1.02005
2055.617,1.05213,1.05277,2055.617,1.05466,1.01997
2053.68866,1.05219,1.05277,2053.68866,1.05481,1.01994
2051.76031,1.0523,1.05277,2051.76031,1.05496,1.01994
2049.83196,1.05233,1.05274,2049.83196,1.05507,1.01989
2047.90362,1.05224,1.05271,2047.90362,1.05511,1.01979
2045.97527,1.05212,1.05274,2045.97527,1.05509,1.0197
2044.04693,1.05203,1.05279,2044.04693,1.05502,1.01965
2042.11858,1.05198,1.05283,2042.11858,1.05493,1.01968
2040.19023,1.05199,1.05289,2040.19023,1.05494,1.01981
2038.26189,1.0521,1.05303,2038.26189,1.05508,1.02
2036.33354,1.05218,1.05316,2036.33354,1.05521,1.02012
2034.4052,1.05216,1.05321,2034.4052,1.05519,1.02012
2032.47685,1.05211,1.05327,2032.47685,1.05515,1.02008
2030.5485,1.05212,1.05337,2030.5485,1.05516,1.02005
2028.62016,1.05215,1.0534,2028.62016,1.05517,1.02001
2026.69181,1.05218,1.05333,2026.69181,1.0551,1.01991
2024.76346,1.05217,1.05323,2024.76346,1.05492,1.01971
2022.83512,1.05208,1.05314,2022.83512,1.05468,1.01943
2020.90677,1.05191,1.05297,2020.90677,1.05442,1.01911
2018.97843,1.05168,1.05268,2018.97843,1.05412,1.01876
2017.05008,1.05154,1.05246,2017.05008,1.05392,1.01856
2015.12173,1.05164,1.0525,2015.12173,1.05401,1.01868
2013.19339,1.05184,1.05262,2013.19339,1.05418,1.01893
2011.26504,1.05193,1.05264,2011.26504,1.05416,1.01909
2009.3367,1.05186,1.05256,2009.3367,1.05397,1.01921
2007.40835,1.05173,1.05244,2007.40835,1.05377,1.01937
2005.48,1.05169,1.05237,2005.48,1.05365,1.01961
2003.55166,1.05177,1.05236,2003.55166,1.05359,1.01993
2001.62331,1.05186,1.05236,2001.62331,1.05354,1.02027
1999.69496,1.05187,1.0523,1999.69496,1.05345,1.02057
1997.76662,1.05181,1.05221,1997.76662,1.0533,1.02079
1995.83827,1.05172,1.05212,1995.83827,1.0531,1.02087
1993.90993,1.05158,1.052,1993.90993,1.05284,1.02077
1991.98158,1.05147,1.05189,1991.98158,1.05259,1.02064
1990.05323,1.05148,1.05186,1990.05323,1.05241,1.0207
1988.12489,1.05157,1.05185,1988.12489,1.05231,1.02094
1986.19654,1.05171,1.05185,1986.19654,1.05227,1.02121
1984.2682,1.05181,1.05182,1984.2682,1.05221,1.02135
1982.33985,1.05181,1.05172,1982.33985,1.05209,1.02137
1980.4115,1.05172,1.05159,1980.4115,1.05196,1.02143
1978.48316,1.05157,1.05143,1978.48316,1.05178,1.02153
1976.55481,1.05142,1.05123,1976.55481,1.05149,1.02159
1974.62646,1.05135,1.05105,1974.62646,1.05115,1.02165
1972.69812,1.05138,1.05094,1972.69812,1.05079,1.02169
1970.76977,1.05136,1.05081,1970.76977,1.05021,1.02159
1968.84143,1.05123,1.05055,1968.84143,1.04928,1.02136
1966.91308,1.05113,1.05026,1966.91308,1.04818,1.02115
1964.98473,1.05116,1.05013,1964.98473,1.04722,1.02105
1963.05639,1.05119,1.05006,1963.05639,1.04658,1.02092
1961.12804,1.05116,1.04999,1961.12804,1.04631,1.02064
1959.1997,1.05113,1.0499,1959.1997,1.04649,1.02022
1957.27135,1.05109,1.04974,1957.27135,1.04695,1.01964
1955.343,1.05101,1.04951,1955.343,1.04747,1.01893
1953.41466,1.05096,1.0493,1953.41466,1.04796,1.01829
1951.48631,1.05094,1.04915,1951.48631,1.04843,1.01783
1949.55796,1.05094,1.04902,1949.55796,1.04887,1.0176
1947.62962,1.0509,1.04884,1947.62962,1.04928,1.0175
1945.70127,1.05076,1.04856,1945.70127,1.04959,1.01739
1943.77293,1.05055,1.04826,1943.77293,1.04981,1.0173
1941.84458,1.05054,1.04825,1941.84458,1.05017,1.01743
1939.91623,1.05078,1.04857,1939.91623,1.05075,1.01786
1937.98789,1.05105,1.04899,1937.98789,1.05136,1.01835
1936.05954,1.0512,1.0493,1936.05954,1.05181,1.01875
1934.1312,1.05125,1.04953,1934.1312,1.05212,1.01907
1932.20285,1.0513,1.04977,1932.20285,1.05241,1.01939
1930.2745,1.05138,1.05001,1930.2745,1.05274,1.01961
1928.34616,1.05141,1.05013,1928.34616,1.05298,1.01966
1926.41781,1.05126,1.05006,1926.41781,1.05295,1.01951
1924.48946,1.05093,1.04983,1924.48946,1.05268,1.01924
1922.56112,1.05078,1.04975,1922.56112,1.05253,1.01914
1920.63277,1.0509,1.04994,1920.63277,1.05274,1.01934
1918.70443,1.05107,1.05021,1918.70443,1.05309,1.01963
1916.77608,1.05123,1.05047,1916.77608,1.05341,1.0199
1914.84773,1.05133,1.0507,1914.84773,1.05366,1.02009
1912.91939,1.05131,1.05079,1912.91939,1.05378,1.02007
1910.99104,1.05126,1.05076,1910.99104,1.05383,1.01986
1909.0627,1.0513,1.05078,1909.0627,1.0539,1.01962
1907.13435,1.05142,1.05089,1907.13435,1.05405,1.01945
1905.206,1.05147,1.05097,1905.206,1.05418,1.01929
1903.27766,1.05146,1.051,1903.27766,1.05424,1.0191
1901.34931,1.05141,1.05099,1901.34931,1.05426,1.01887
1899.42096,1.05134,1.05091,1899.42096,1.05425,1.01864
1897.49262,1.05123,1.05076,1897.49262,1.05418,1.01843
1895.56427,1.05114,1.05065,1895.56427,1.05411,1.01828
1893.63593,1.05106,1.0506,1893.63593,1.05409,1.01826
1891.70758,1.05097,1.05052,1891.70758,1.05405,1.01837
1889.77923,1.05093,1.05046,1889.77923,1.05403,1.01864
1887.85089,1.05107,1.05058,1887.85089,1.05411,1.01908
1885.92254,1.05123,1.05074,1885.92254,1.05425,1.01956
1883.9942,1.05126,1.0508,1883.9942,1.05434,1.01993
1882.06585,1.05118,1.05073,1882.06585,1.05436,1.02021
1880.1375,1.05108,1.05063,1880.1375,1.05432,1.02045
1878.20916,1.05106,1.05061,1878.20916,1.05427,1.02075
1876.28081,1.0511,1.05067,1876.28081,1.05425,1.02111
1874.35246,1.05109,1.05065,1874.35246,1.05415,1.02137
1872.42412,1.05089,1.05041,1872.42412,1.05388,1.02141
1870.49577,1.05056,1.05007,1870.49577,1.05351,1.0214
1868.56743,1.05045,1.04999,1868.56743,1.05329,1.02163
1866.63908,1.05063,1.05024,1866.63908,1.05331,1.02213
1864.71073,1.05081,1.05049,1864.71073,1.05332,1.0226
1862.78239,1.05081,1.05051,1862.78239,1.05316,1.02293
1860.85404,1.05074,1.05042,1860.85404,1.05292,1.0232
1858.9257,1.05069,1.0504,1858.9257,1.0527,1.02349
1856.99735,1.05066,1.05047,1856.99735,1.05248,1.02381
1855.069,1.05062,1.05053,1855.069,1.05223,1.02409
1853.14066,1.05057,1.0505,1853.14066,1.05187,1.02423
1851.21231,1.05044,1.05035,1851.21231,1.05133,1.02411
1849.28396,1.0502,1.05009,1849.28396,1.05064,1.02378
1847.35562,1.04996,1.04988,1847.35562,1.04997,1.02346
1845.42727,1.04989,1.04983,1845.42727,1.04942,1.0233
1843.49893,1.04999,1.04994,1843.49893,1.04893,1.02322
1841.57058,1.05014,1.05016,1841.57058,1.04848,1.0231
1839.64223,1.05024,1.05038,1839.64223,1.04807,1.02287
1837.71389,1.05024,1.0505,1837.71389,1.04765,1.02249
1835.78554,1.05017,1.05055,1835.78554,1.04716,1.02197
1833.8572,1.05003,1.05052,1833.8572,1.04666,1.02132
1831.92885,1.04988,1.05041,1831.92885,1.04617,1.02056
1830.0005,1.04983,1.05036,1830.0005,1.04568,1.01989
1828.07216,1.04979,1.05036,1828.07216,1.04512,1.01937
1826.14381,1.04961,1.05029,1826.14381,1.04456,1.01895
1824.21546,1.04944,1.05022,1824.21546,1.04415,1.01873
1822.28712,1.04939,1.0502,1822.28712,1.04392,1.01879
1820.35877,1.04933,1.05013,1820.35877,1.0437,1.01893
1818.43043,1.04923,1.05002,1818.43043,1.04342,1.01905
1816.50208,1.04914,1.04998,1816.50208,1.0432,1.01918
1814.57373,1.04899,1.04996,1814.57373,1.043,1.0193
1812.64539,1.04881,1.04987,1812.64539,1.04274,1.01925
1810.71704,1.04869,1.04977,1810.71704,1.04248,1.01898
1808.7887,1.04864,1.04971,1808.7887,1.04227,1.01849
1806.86035,1.04852,1.04964,1806.86035,1.04208,1.01764
1804.932,1.04826,1.0495,1804.932,1.04174,1.01612
1803.00366,1.04795,1.04932,1803.00366,1.04132,1.01368
1801.07531,1.04778,1.04926,1801.07531,1.04118,1.01038
1799.14696,1.04772,1.04928,1799.14696,1.04135,1.00627
1797.21862,1.04754,1.04923,1797.21862,1.04146,1.00141
1795.29027,1.04727,1.04911,1795.29027,1.04142,0.99608
1793.36193,1.04702,1.04897,1793.36193,1.04128,0.99037
1791.43358,1.04685,1.04888,1791.43358,1.04107,0.98436
1789.50523,1.04673,1.04891,1789.50523,1.04084,0.97796
1787.57689,1.04656,1.04901,1787.57689,1.04053,0.96968
1785.64854,1.04625,1.04903,1785.64854,1.04011,0.95798
1783.7202,1.04592,1.04898,1783.7202,1.03978,0.94354
1781.79185,1.04565,1.04891,1781.79185,1.03957,0.92799
1779.8635,1.04544,1.04894,1779.8635,1.03926,0.91262
1777.93516,1.04519,1.04904,1777.93516,1.03884,0.90023
1776.00681,1.0449,1.04913,1776.00681,1.03848,0.89521
1774.07846,1.04462,1.04925,1774.07846,1.03818,0.90155
1772.15012,1.04413,1.04933,1772.15012,1.0375,0.91883
1770.22177,1.04323,1.04919,1770.22177,1.03602,0.93862
1768.29343,1.0422,1.04901,1768.29343,1.03436,0.95282
1766.36508,1.04131,1.04903,1766.36508,1.03316,0.96071
1764.43673,1.04033,1.04919,1764.43673,1.03217,0.96437
1762.50839,1.03887,1.04928,1762.50839,1.0307,0.96535
1760.58004,1.03682,1.04931,1760.58004,1.02856,0.96454
1758.6517,1.03408,1.04928,1758.6517,1.02581,0.96231
1756.72335,1.03046,1.04922,1756.72335,1.02243,0.9587
1754.795,1.02581,1.04912,1754.795,1.01829,0.9536
1752.86666,1.01948,1.0488,1752.86666,1.01258,0.94606
1750.93831,1.01052,1.04837,1750.93831,1.00395,0.93413
1749.00996,0.99901,1.04818,1749.00996,0.99168,0.91636
1747.08162,0.98571,1.04808,1747.08162,0.97562,0.89233
1745.15327,0.97093,1.04784,1745.15327,0.95511,0.86165
1743.22493,0.95494,1.04772,1743.22493,0.9295,0.82483
1741.29658,0.93822,1.048,1741.29658,0.89847,0.78377
1739.36823,0.92167,1.04838,1739.36823,0.86362,0.74226
1737.43989,0.90702,1.04845,1737.43989,0.82856,0.70493
1735.51154,0.89443,1.04819,1735.51154,0.79067,0.66895
1733.5832,0.88354,1.04795,1733.5832,0.7457,0.62921
1731.65485,0.87651,1.04807,1731.65485,0.70089,0.59068
1729.7265,0.87418,1.04842,1729.7265,0.66094,0.55639
1727.79816,0.87549,1.04879,1727.79816,0.62191,0.52234
1725.86981,0.87973,1.04902,1725.86981,0.58117,0.48649
1723.94146,0.88649,1.04913,1723.94146,0.53802,0.44956
1722.01312,0.89483,1.04917,1722.01312,0.4929,0.41422
1720.08477,0.90452,1.04908,1720.08477,0.44393,0.38189
1718.15643,0.91709,1.04897,1718.15643,0.3914,0.35207
1716.22808,0.93271,1.04909,1716.22808,0.35376,0.32914
1714.29973,0.94867,1.04947,1714.29973,0.35403,0.31956
1712.37139,0.9636,1.04994,1712.37139,0.39347,0.32338
1710.44304,0.97776,1.05029,1710.44304,0.45939,0.33868
1708.5147,0.99127,1.05049,1708.5147,0.53683,0.36442
1706.58635,1.0038,1.05059,1706.58635,0.61499,0.39911
1704.658,1.01422,1.05065,1704.658,0.68408,0.43716
1702.72966,1.02184,1.05077,1702.72966,0.73824,0.47292
1700.80131,1.02786,1.05102,1700.80131,0.78427,0.50903
1698.87296,1.03276,1.05122,1698.87296,0.82479,0.54527
1696.94462,1.03595,1.05121,1696.94462,0.85481,0.57657
1695.01627,1.03795,1.05109,1695.01627,0.87686,0.60408
1693.08793,1.03927,1.05086,1693.08793,0.8934,0.62787
1691.15958,1.0401,1.05048,1691.15958,0.90546,0.64829
1689.23123,1.04061,1.04999,1689.23123,0.91471,0.66761
1687.30289,1.04102,1.0496,1687.30289,0.92132,0.68632
1685.37454,1.04155,1.04932,1685.37454,0.92585,0.70633
1683.4462,1.04231,1.04906,1683.4462,0.93012,0.72822
1681.51785,1.04301,1.04892,1681.51785,0.93561,0.74689
1679.5895,1.04358,1.04899,1679.5895,0.94252,0.76117
1677.66116,1.0441,1.04911,1677.66116,0.95021,0.77418
1675.73281,1.04464,1.0492,1675.73281,0.9578,0.7875
1673.80446,1.04521,1.04931,1673.80446,0.96446,0.79999
1671.87612,1.04576,1.04934,1671.87612,0.97013,0.81047
1669.94777,1.04633,1.04922,1669.94777,0.97583,0.81997
1668.01943,1.04688,1.04907,1668.01943,0.98169,0.82864
1666.09108,1.04734,1.049,1666.09108,0.98692,0.83556
1664.16273,1.04774,1.04898,1664.16273,0.99187,0.84167
1662.23439,1.04812,1.04893,1662.23439,0.99674,0.84781
1660.30604,1.04837,1.04886,1660.30604,1.0008,0.85328
1658.3777,1.04843,1.04874,1658.3777,1.00375,0.85768
1656.44935,1.0484,1.04861,1656.44935,1.00626,0.86187
1654.521,1.04864,1.04871,1654.521,1.00923,0.86742
1652.59266,1.04919,1.04902,1652.59266,1.01243,0.87413
1650.66431,1.04942,1.04902,1650.66431,1.0144,0.8791
1648.73596,1.04941,1.04885,1648.73596,1.01543,0.88266
1646.80762,1.04946,1.04869,1646.80762,1.01664,0.88717
1644.87927,1.04955,1.0485,1644.87927,1.01792,0.89231
1642.95093,1.04953,1.0483,1642.95093,1.01887,0.89676
1641.02258,1.04945,1.04819,1641.02258,1.01974,0.90068
1639.09423,1.04939,1.04816,1639.09423,1.02093,0.90456
1637.16589,1.04947,1.04813,1637.16589,1.02255,0.90861
1635.23754,1.04954,1.04791,1635.23754,1.02404,0.91234
1633.3092,1.04934,1.04753,1633.3092,1.02469,0.91472
1631.38085,1.04904,1.04729,1631.38085,1.02492,0.91603
1629.4525,1.04894,1.04727,1629.4525,1.02545,0.91723
1627.52416,1.04905,1.04731,1627.52416,1.02634,0.91852
1625.59581,1.0492,1.04728,1625.59581,1.02718,0.91959
1623.66746,1.04925,1.04713,1623.66746,1.02771,0.92044
1621.73912,1.0492,1.04697,1621.73912,1.02782,0.92123
1619.81077,1.04911,1.04694,1619.81077,1.02761,0.92227
1617.88243,1.04906,1.04701,1617.88243,1.02714,0.92382
1615.95408,1.04894,1.04688,1615.95408,1.02637,0.92544
1614.02573,1.04869,1.04651,1614.02573,1.02578,0.92652
1612.09739,1.04853,1.04619,1612.09739,1.02613,0.92735
1610.16904,1.04859,1.046,1610.16904,1.02758,0.92818
1608.24069,1.0487,1.04581,1608.24069,1.02955,0.92825
1606.31235,1.04869,1.04558,1606.31235,1.03138,0.9263
1604.384,1.04855,1.04536,1604.384,1.03278,0.92163
1602.45566,1.04837,1.04514,1602.45566,1.03377,0.91533
1600.52731,1.04822,1.04489,1600.52731,1.03441,0.91011
1598.59896,1.0481,1.04465,1598.59896,1.03477,0.90827
1596.67062,1.04801,1.04453,1596.67062,1.03488,0.91013
1594.74227,1.04796,1.0446,1594.74227,1.03478,0.91475
1592.81393,1.04798,1.04481,1592.81393,1.03445,0.92103
1590.88558,1.04808,1.04505,1590.88558,1.03382,0.92818
1588.95723,1.04824,1.04529,1588.95723,1.03275,0.93579
1587.02889,1.0484,1.04553,1587.02889,1.03095,0.94358
1585.10054,1.04853,1.04575,1585.10054,1.02802,0.9511
1583.17219,1.04858,1.04595,1583.17219,1.02385,0.95786
1581.24385,1.0485,1.04615,1581.24385,1.01935,0.96346
1579.3155,1.04836,1.04644,1579.3155,1.01639,0.96794
1577.38716,1.04843,1.04684,1577.38716,1.01664,0.97182
1575.45881,1.04871,1.0471,1575.45881,1.01983,0.97511
1573.53046,1.04897,1.0471,1573.53046,1.02369,0.97729
1571.60212,1.0492,1.04703,1571.60212,1.02694,0.97872
1569.67377,1.04948,1.04703,1569.67377,1.02966,0.98004
1567.74543,1.04975,1.04715,1567.74543,1.03159,0.98109
1565.81708,1.04991,1.04731,1565.81708,1.03267,0.9816
1563.88873,1.04982,1.04734,1563.88873,1.03326,0.98155
1561.96039,1.04937,1.0471,1561.96039,1.03376,0.981
1560.03204,1.04896,1.04691,1560.03204,1.03451,0.97962
1558.10369,1.04905,1.04701,1558.10369,1.03502,0.97707
1556.17535,1.04908,1.0469,1556.17535,1.03458,0.97442
1554.247,1.04876,1.04644,1554.247,1.03374,0.97315
1552.31866,1.04835,1.04597,1552.31866,1.03325,0.97375
1550.39031,1.0481,1.04575,1550.39031,1.03328,0.97591
1548.46196,1.048,1.04578,1548.46196,1.03364,0.97867
1546.53362,1.04771,1.04562,1546.53362,1.03398,0.98071
1544.60527,1.0474,1.04545,1544.60527,1.03444,0.98178
1542.67693,1.04771,1.04598,1542.67693,1.03562,0.98254
1540.74858,1.04851,1.0469,1540.74858,1.03715,0.98278
1538.82023,1.04887,1.04709,1538.82023,1.03763,0.98145
1536.89189,1.04856,1.04656,1536.89189,1.03689,0.97884
1534.96354,1.04804,1.04601,1534.96354,1.03587,0.97535
1533.03519,1.04761,1.04567,1533.03519,1.0349,0.97061
1531.10685,1.04733,1.04556,1531.10685,1.03387,0.96466
1529.1785,1.04701,1.04539,1529.1785,1.03271,0.95696
1527.25016,1.04674,1.0451,1527.25016,1.03164,0.94563
1525.32181,1.04669,1.04495,1525.32181,1.03109,0.92915
1523.39346,1.04668,1.04494,1523.39346,1.03113,0.90634
1521.46512,1.04644,1.0448,1521.46512,1.0314,0.87732
1519.53677,1.04604,1.04454,1519.53677,1.03154,0.84737
1517.60843,1.04565,1.04426,1517.60843,1.03124,0.81924
1515.68008,1.04547,1.04413,1515.68008,1.03024,0.79081
1513.75173,1.04544,1.04409,1513.75173,1.0279,0.76412
1511.82339,1.04518,1.04386,1511.82339,1.02271,0.74209
1509.89504,1.04463,1.04355,1509.89504,1.01267,0.71844
1507.96669,1.0445,1.04394,1507.96669,0.99815,0.67253
1506.03835,1.04523,1.04512,1506.03835,0.98701,0.59475
1504.11,1.04594,1.04584,1504.11,0.98846,0.51704
1502.18166,1.04611,1.04574,1502.18166,0.99949,0.4642
1500.25331,1.04592,1.04535,1500.25331,1.01274,0.43965
1498.32496,1.04554,1.04499,1498.32496,1.02361,0.45011
1496.39662,1.04512,1.0447,1496.39662,1.03028,0.49842
1494.46827,1.0446,1.04432,1494.46827,1.03305,0.56781
1492.53993,1.04372,1.04362,1492.53993,1.03317,0.63836
1490.61158,1.04259,1.04271,1490.61158,1.03179,0.70642
1488.68323,1.04188,1.04225,1488.68323,1.02984,0.76852
1486.75489,1.04168,1.04247,1486.75489,1.02779,0.81487
1484.82654,1.04131,1.04283,1484.82654,1.02527,0.8447
1482.89819,1.04033,1.04301,1482.89819,1.0219,0.86448
1480.96985,1.0386,1.04303,1480.96985,1.01762,0.87872
1479.0415,1.03595,1.04285,1479.0415,1.01228,0.88863
1477.11316,1.03219,1.04242,1477.11316,1.00498,0.89481
1475.18481,1.02729,1.04195,1475.18481,0.99481,0.89824
1473.25646,1.02141,1.04172,1473.25646,0.98371,0.89955
1471.32812,1.01521,1.04166,1471.32812,0.97792,0.89921
1469.39977,1.00963,1.04149,1469.39977,0.98126,0.89805
1467.47143,1.00492,1.04103,1467.47143,0.98972,0.89702
1465.54308,1.00121,1.04033,1465.54308,0.99707,0.89669
1463.61473,0.9989,1.03955,1463.61473,1.00011,0.89662
1461.68639,0.99784,1.03861,1461.68639,0.99953,0.89492
1459.75804,0.99766,1.03735,1459.75804,0.99724,0.88855
1457.82969,0.99875,1.03594,1457.82969,0.99423,0.87603
1455.90135,1.00126,1.03484,1455.90135,0.99158,0.86401
1453.973,1.00417,1.03421,1453.973,0.99035,0.86331
1452.04466,1.00679,1.03365,1452.04466,0.99039,0.87553
1450.11631,1.00884,1.03277,1450.11631,0.99123,0.89536
1448.18796,1.00997,1.03183,1448.18796,0.99263,0.91652
1446.25962,1.00972,1.03139,1446.25962,0.99433,0.93417
1444.33127,1.00751,1.03154,1444.33127,0.99604,0.94622
1442.40293,1.00279,1.03194,1442.40293,0.99771,0.95345
1440.47458,0.9955,1.03232,1440.47458,0.99942,0.9577
1438.54623,0.98632,1.03249,1438.54623,1.00155,0.96091
1436.61789,0.97755,1.03263,1436.61789,1.00469,0.96464
1434.68954,0.97268,1.03296,1434.68954,1.00867,0.96852
1432.76119,0.97153,1.03324,1432.76119,1.01264,0.97094
1430.83285,0.96951,1.03305,1430.83285,1.01616,0.97113
1428.9045,0.96363,1.03227,1428.9045,1.01883,0.96959
1426.97616,0.95768,1.0308,1426.97616,1.01994,0.96758
1425.04781,0.95837,1.02858,1425.04781,1.01917,0.96605
1423.11946,0.96658,1.02574,1423.11946,1.01631,0.96507
1421.19112,0.97677,1.02221,1421.19112,1.00972,0.9642
1419.26277,0.98479,1.01802,1419.26277,0.99576,0.96338
1417.33443,0.99073,1.01437,1417.33443,0.97241,0.96333
1415.40608,0.99574,1.01222,1415.40608,0.94121,0.96421
1413.47773,1.00049,1.01122,1413.47773,0.90604,0.96496
1411.54939,1.00512,1.01095,1411.54939,0.87592,0.96445
1409.62104,1.00947,1.0114,1409.62104,0.86232,0.962
1407.69269,1.01326,1.01233,1407.69269,0.86993,0.95689
1405.76435,1.0162,1.01346,1405.76435,0.89346,0.9483
1403.836,1.01791,1.01473,1403.836,0.92165,0.93598
1401.90766,1.01798,1.01601,1401.90766,0.94478,0.91992
1399.97931,1.01652,1.0174,1399.97931,0.96057,0.89905
1398.05096,1.01427,1.01935,1398.05096,0.97088,0.87321
1396.12262,1.012,1.02205,1396.12262,0.97715,0.84386
1394.19427,1.00999,1.02521,1394.19427,0.9803,0.81271
1392.26593,1.00807,1.02808,1392.26593,0.98084,0.78231
1390.33758,1.00579,1.02998,1390.33758,0.97923,0.75288
1388.40923,1.00299,1.0311,1388.40923,0.97672,0.72096
1386.48089,1.00014,1.03211,1386.48089,0.97536,0.68542
1384.55254,0.99763,1.03319,1384.55254,0.97622,0.64913
1382.62419,0.99544,1.03404,1382.62419,0.97839,0.61405
1380.69585,0.99389,1.03458,1380.69585,0.98033,0.58141
1378.7675,0.99366,1.03497,1378.7675,0.98109,0.55406
1376.83916,0.99498,1.03525,1376.83916,0.98033,0.5349
1374.91081,0.99745,1.03538,1374.91081,0.97829,0.52512
1372.98246,1.00031,1.03552,1372.98246,0.97595,0.52418
1371.05412,1.00258,1.03574,1371.05412,0.97474,0.52995
1369.12577,1.00364,1.03596,1369.12577,0.97576,0.53974
1367.19743,1.0034,1.03606,1367.19743,0.97921,0.55154
1365.26908,1.00193,1.03589,1365.26908,0.98413,0.5645
1363.34073,0.99963,1.03566,1363.34073,0.98925,0.57933
1361.41239,0.99731,1.03587,1361.41239,0.99346,0.5963
1359.48404,0.99535,1.03644,1359.48404,0.99581,0.61409
1357.55569,0.99358,1.03682,1357.55569,0.99572,0.63203
1355.62735,0.99218,1.03687,1355.62735,0.99293,0.65049
1353.699,0.99168,1.03682,1353.699,0.98691,0.66945
1351.77066,0.99242,1.03682,1351.77066,0.97604,0.68855
1349.84231,0.99397,1.03685,1349.84231,0.95682,0.70776
1347.91396,0.99534,1.03684,1347.91396,0.92476,0.72716
1345.98562,0.99537,1.03671,1345.98562,0.87905,0.7464
1344.05727,0.99313,1.03635,1344.05727,0.82928,0.76491
1342.12893,0.98805,1.03567,1342.12893,0.7946,0.78242
1340.20058,0.9806,1.0349,1340.20058,0.79216,0.79944
1338.27223,0.97303,1.03467,1338.27223,0.82353,0.81621
1336.34389,0.96795,1.03508,1336.34389,0.87207,0.83199
1334.41554,0.96616,1.03553,1334.41554,0.91799,0.84611
1332.48719,0.96671,1.0356,1332.48719,0.95151,0.85836
1330.55885,0.96829,1.03533,1330.55885,0.97183,0.86862
1328.6305,0.97007,1.03497,1328.6305,0.98206,0.87679
1326.70216,0.97176,1.03461,1326.70216,0.98581,0.88299
1324.77381,0.97328,1.03416,1324.77381,0.98575,0.88739
1322.84546,0.97466,1.03358,1322.84546,0.98349,0.89014
1320.91712,0.97597,1.03297,1320.91712,0.97997,0.89122
1318.98877,0.97727,1.0324,1318.98877,0.97569,0.8905
1317.06043,0.97851,1.03187,1317.06043,0.97086,0.88777
1315.13208,0.97957,1.03127,1315.13208,0.96533,0.88258
1313.20373,0.98047,1.03067,1313.20373,0.95881,0.87436
1311.27539,0.98134,1.03023,1311.27539,0.95125,0.86307
1309.34704,0.98209,1.02982,1309.34704,0.94273,0.84979
1307.41869,0.98264,1.02929,1307.41869,0.93333,0.8379
1305.49035,0.98312,1.02866,1305.49035,0.92292,0.83259
1303.562,0.98363,1.02789,1303.562,0.91093,0.8361
1301.63366,0.98415,1.02695,1301.63366,0.89666,0.8442
1299.70531,0.9844,1.02594,1299.70531,0.87993,0.84981
1297.77696,0.98397,1.02493,1297.77696,0.86128,0.84897
1295.84862,0.98248,1.02381,1295.84862,0.84153,0.84261
1293.92027,0.97988,1.02245,1293.92027,0.82132,0.83386
1291.99193,0.97624,1.02088,1291.99193,0.80092,0.82508
1290.06358,0.9717,1.01909,1290.06358,0.78025,0.8179
1288.13523,0.96645,1.0171,1288.13523,0.75889,0.81509
1286.20689,0.96076,1.01494,1286.20689,0.73643,0.81938
1284.27854,0.95469,1.01242,1284.27854,0.71274,0.83024
1282.35019,0.94793,1.00919,1282.35019,0.68799,0.84419
1280.42185,0.9401,1.00502,1280.42185,0.66266,0.85762
1278.4935,0.93094,0.99957,1278.4935,0.63745,0.86811
1276.56516,0.92032,0.99207,1276.56516,0.61294,0.87442
1274.63681,0.90827,0.9812,1274.63681,0.58918,0.87639
1272.70846,0.89468,0.9648,1272.70846,0.56557,0.87438
1270.78012,0.87899,0.93931,1270.78012,0.54135,0.86853
1268.85177,0.86073,0.90037,1268.85177,0.51623,0.85857
1266.92343,0.84119,0.84542,1266.92343,0.4905,0.844
1264.99508,0.8242,0.77786,1264.99508,0.46497,0.82381
1263.06673,0.81356,0.70907,1263.06673,0.44114,0.79626
1261.13839,0.80956,0.65445,1261.13839,0.42045,0.75959
1259.21004,0.80916,0.62557,1259.21004,0.40328,0.71418
1257.28169,0.80965,0.62478,1257.28169,0.38863,0.66372
1255.35335,0.81181,0.64687,1255.35335,0.37501,0.6137
1253.425,0.81819,0.68627,1253.425,0.36194,0.5695
1251.49666,0.82868,0.74049,1251.49666,0.35046,0.53474
1249.56831,0.84019,0.80467,1249.56831,0.34225,0.51006
1247.63996,0.85036,0.86711,1247.63996,0.33889,0.49401
1245.71162,0.85899,0.91623,1245.71162,0.34186,0.48498
1243.78327,0.86655,0.94897,1243.78327,0.35282,0.48216
1241.85493,0.87345,0.96919,1241.85493,0.37356,0.48521
1239.92658,0.88019,0.98168,1239.92658,0.40547,0.49373
1237.99823,0.88709,0.98948,1237.99823,0.44845,0.50709
1236.06989,0.894,0.99431,1236.06989,0.49999,0.52453
1234.14154,0.90045,0.99727,1234.14154,0.55544,0.54508
1232.21319,0.90606,0.99894,1232.21319,0.60907,0.56767
1230.28485,0.91123,0.99949,1230.28485,0.65588,0.59137
1228.3565,0.91706,0.99904,1228.3565,0.69317,0.61551
1226.42816,0.92395,0.9978,1226.42816,0.7215,0.63952
1224.49981,0.93078,0.99599,1224.49981,0.74424,0.66282
1222.57146,0.93602,0.9937,1222.57146,0.76578,0.685
1220.64312,0.93895,0.99091,1220.64312,0.78858,0.7059
1218.71477,0.93986,0.98777,1218.71477,0.81173,0.7255
1216.78643,0.93937,0.98437,1216.78643,0.83277,0.74372
1214.85808,0.93812,0.9808,1214.85808,0.85016,0.7602
1212.92973,0.93655,0.9771,1212.92973,0.86408,0.7742
1211.00139,0.93482,0.97331,1211.00139,0.8755,0.78492
1209.07304,0.933,0.9696,1209.07304,0.88546,0.79215
1207.14469,0.93112,0.96609,1207.14469,0.8948,0.79668
1205.21635,0.92902,0.96278,1205.21635,0.90376,0.79984
1203.288,0.92658,0.95968,1203.288,0.91206,0.80304
1201.35966,0.92391,0.95679,1201.35966,0.91955,0.80726
1199.43131,0.92111,0.95392,1199.43131,0.92631,0.81242
1197.50296,0.91859,0.95141,1197.50296,0.93245,0.81731
1195.57462,0.91645,0.94929,1195.57462,0.93801,0.81976
1193.64627,0.91462,0.9474,1193.64627,0.94286,0.81784
1191.71793,0.91304,0.94569,1191.71793,0.94688,0.81157
1189.78958,0.9117,0.94429,1189.78958,0.95001,0.80373
1187.86123,0.9106,0.94325,1187.86123,0.95207,0.79858
1185.93289,0.90959,0.94247,1185.93289,0.95286,0.79897
1184.00454,0.90843,0.94174,1184.00454,0.95217,0.80454
1182.07619,0.9071,0.94102,1182.07619,0.95003,0.81187
1180.14785,0.90565,0.94038,1180.14785,0.94704,0.81609
1178.2195,0.90428,0.93981,1178.2195,0.94419,0.81271
1176.29116,0.9032,0.93922,1176.29116,0.94247,0.79941
1174.36281,0.90246,0.93852,1174.36281,0.94274,0.77732
1172.43446,0.90222,0.93774,1172.43446,0.94549,0.7508
1170.50612,0.90274,0.93701,1170.50612,0.95023,0.72541
1168.57777,0.904,0.93635,1168.57777,0.95523,0.70661
1166.64943,0.90596,0.9357,1166.64943,0.95855,0.70053
1164.72108,0.90868,0.935,1164.72108,0.95927,0.71135
1162.79273,0.91199,0.93417,1162.79273,0.95766,0.73606
1160.86439,0.91556,0.93317,1160.86439,0.95453,0.76729
1158.93604,0.91889,0.93199,1158.93604,0.95051,0.79938
1157.00769,0.92144,0.93059,1157.00769,0.94552,0.82812
1155.07935,0.92289,0.92896,1155.07935,0.93919,0.84998
1153.151,0.92312,0.92707,1153.151,0.93128,0.86412
1151.22266,0.92204,0.92489,1151.22266,0.92164,0.87215
1149.29431,0.91974,0.92233,1149.29431,0.91,0.87598
1147.36596,0.9167,0.91925,1147.36596,0.89583,0.87647
1145.43762,0.91337,0.91548,1145.43762,0.87827,0.87364
1143.50927,0.91002,0.91099,1143.50927,0.85632,0.8668
1141.58092,0.907,0.90594,1141.58092,0.82893,0.85426
1139.65258,0.90466,0.90061,1139.65258,0.79503,0.83399
1137.72423,0.90294,0.89531,1137.72423,0.75408,0.80696
1135.79589,0.90136,0.89013,1135.79589,0.70725,0.77875
1133.86754,0.89926,0.88493,1133.86754,0.65816,0.75443
1131.93919,0.8961,0.87929,1131.93919,0.61195,0.73278
1130.01085,0.89161,0.87271,1130.01085,0.57317,0.70943
1128.0825,0.88555,0.86487,1128.0825,0.54415,0.68309
1126.15416,0.87774,0.85561,1126.15416,0.52484,0.65592
1124.22581,0.86845,0.84489,1124.22581,0.51399,0.62944
1122.29746,0.85864,0.83293,1122.29746,0.51044,0.60228
1120.36912,0.8496,0.81987,1120.36912,0.51331,0.57205
1118.44077,0.84252,0.80554,1118.44077,0.5209,0.53949
1116.51242,0.83792,0.7899,1116.51242,0.52859,0.5111
1114.58408,0.83543,0.77304,1114.58408,0.53051,0.4974
1112.65573,0.83414,0.75499,1112.65573,0.5262,0.50686
1110.72739,0.83289,0.73582,1110.72739,0.52002,0.53795
1108.79904,0.83023,0.71564,1108.79904,0.51273,0.57703
1106.87069,0.82532,0.69453,1106.87069,0.50152,0.60698
1104.94235,0.81958,0.67263,1104.94235,0.48648,0.618
1103.014,0.8162,0.65019,1103.014,0.4711,0.61056
1101.08566,0.81729,0.62749,1101.08566,0.45923,0.5916
1099.15731,0.82198,0.60483,1099.15731,0.45387,0.56933
1097.22896,0.82769,0.58247,1097.22896,0.45673,0.54892
1095.30062,0.83248,0.56065,1095.30062,0.46811,0.53213
1093.37227,0.83589,0.53976,1093.37227,0.48697,0.52005
1091.44392,0.83836,0.52017,1091.44392,0.51133,0.5143
1089.51558,0.84059,0.50212,1089.51558,0.53903,0.51582
1087.58723,0.84293,0.4858,1087.58723,0.56854,0.52437
1085.65889,0.8455,0.47133,1085.65889,0.5994,0.53899
1083.73054,0.84844,0.4587,1083.73054,0.63197,0.55852
1081.80219,0.85183,0.44774,1081.80219,0.66659,0.58132
1079.87385,0.85573,0.4383,1079.87385,0.70247,0.60508
1077.9455,0.86027,0.43033,1077.9455,0.73761,0.62737
1076.01716,0.86548,0.42387,1076.01716,0.7697,0.64719
1074.08881,0.87105,0.41887,1074.08881,0.79721,0.66533
1072.16046,0.87647,0.41509,1072.16046,0.8199,0.6832
1070.23212,0.88148,0.41228,1070.23212,0.83837,0.70169
1068.30377,0.88589,0.41031,1068.30377,0.85355,0.72064
1066.37542,0.88966,0.40915,1066.37542,0.86627,0.73893
1064.44708,0.89305,0.40886,1064.44708,0.87708,0.75549
1062.51873,0.89654,0.40944,1062.51873,0.88611,0.76988
1060.59039,0.9005,0.41078,1060.59039,0.89324,0.78212
1058.66204,0.90485,0.41276,1058.66204,0.89826,0.79236
1056.73369,0.90926,0.41529,1056.73369,0.90108,0.80075
1054.80535,0.91353,0.41825,1054.80535,0.90171,0.80748
1052.877,0.9176,0.42142,1052.877,0.90038,0.81298
1050.94866,0.92135,0.42468,1050.94866,0.89762,0.81802
1049.02031,0.92474,0.42801,1049.02031,0.89421,0.82347
1047.09196,0.92779,0.43133,1047.09196,0.89094,0.82977
1045.16362,0.93038,0.43443,1045.16362,0.88868,0.83664
1043.23527,0.93244,0.43698,1043.23527,0.88821,0.84357
1041.30692,0.93401,0.43869,1041.30692,0.88985,0.85005
1039.37858,0.93514,0.43946,1039.37858,0.89331,0.85584
1037.45023,0.93589,0.43922,1037.45023,0.89793,0.86105
1035.52189,0.93626,0.43784,1035.52189,0.9028,0.86609
1033.59354,0.93601,0.43511,1033.59354,0.90666,0.87132
1031.66519,0.93497,0.43083,1031.66519,0.90719,0.87672
1029.73685,0.93336,0.42492,1029.73685,0.89819,0.88184
1027.8085,0.93135,0.41734,1027.8085,0.86718,0.88569
1025.88016,0.92861,0.40793,1025.88016,0.8091,0.88641
1023.95181,0.92428,0.39672,1023.95181,0.74541,0.88228
1022.02346,0.91762,0.38404,1022.02346,0.70342,0.87471
1020.09512,0.91061,0.37052,1020.09512,0.6852,0.86618
1018.16677,0.90792,0.35726,1018.16677,0.68639,0.85583
1016.23842,0.91117,0.34607,1016.23842,0.7153,0.84408
1014.31008,0.917,0.33948,1014.31008,0.77025,0.8376
1012.38173,0.92257,0.34023,1012.38173,0.82969,0.84328
1010.45339,0.92802,0.35046,1010.45339,0.87507,0.86001
1008.52504,0.93384,0.3709,1008.52504,0.90432,0.87929
1006.59669,0.93962,0.4006,1006.59669,0.9231,0.89425
1004.66835,0.94484,0.43751,1004.66835,0.93571,0.90432
1002.74,0.94935,0.47902,1002.74,0.9444,0.91141
1000.81166,0.95308,0.5224,1000.81166,0.95061,0.91683
998.88331,0.95593,0.56553,998.88331,0.9552,0.92142
996.95496,0.95807,0.60714,996.95496,0.95854,0.92558
995.02662,0.95988,0.64649,995.02662,0.96041,0.92918
993.09827,0.96142,0.68314,993.09827,0.96008,0.93166
991.16992,0.96254,0.71704,991.16992,0.95763,0.9327
989.24158,0.96315,0.74836,989.24158,0.95555,0.93244
987.31323,0.96323,0.77727,987.31323,0.95631,0.93134
985.38489,0.9628,0.8039,985.38489,0.95861,0.92997
983.45654,0.96182,0.82829,983.45654,0.95903,0.92879
981.52819,0.96028,0.85043,981.52819,0.95581,0.92792
979.59985,0.95822,0.87021,979.59985,0.94879,0.9274
977.6715,0.95572,0.8877,977.6715,0.9379,0.9274
975.74316,0.95292,0.90314,975.74316,0.92358,0.92788
973.81481,0.94993,0.91668,973.81481,0.90876,0.92848
971.88646,0.94684,0.92838,971.88646,0.8993,0.92884
969.95812,0.94375,0.93844,969.95812,0.89986,0.9288
968.02977,0.94077,0.94711,968.02977,0.90949,0.92843
966.10142,0.93794,0.95458,966.10142,0.92305,0.92769
964.17308,0.93523,0.96097,964.17308,0.93619,0.92647
962.24473,0.93273,0.96635,962.24473,0.94732,0.92477
960.31639,0.93076,0.97093,960.31639,0.95632,0.92277
958.38804,0.92997,0.97501,958.38804,0.96351,0.92083
956.45969,0.93108,0.97883,956.45969,0.96922,0.91935
954.53135,0.93458,0.98246,954.53135,0.97367,0.91855
952.603,0.94006,0.98606,952.603,0.97715,0.91804
950.67466,0.94637,0.98951,950.67466,0.97993,0.9168
948.74631,0.95241,0.99246,948.74631,0.98219,0.91379
946.81796,0.95769,0.9948,946.81796,0.9841,0.9087
944.88962,0.96212,0.99658,944.88962,0.98582,0.90206
942.96127,0.9657,0.99789,942.96127,0.9874,0.89487
941.03292,0.96859,0.99893,941.03292,0.98893,0.8883
939.10458,0.97108,0.99981,939.10458,0.99035,0.8834
937.17623,0.9732,1.00042,937.17623,0.99155,0.8807
935.24789,0.97487,1.00077,935.24789,0.99259,0.88021
933.31954,0.97624,1.00092,933.31954,0.99357,0.88147
931.39119,0.97727,1.00078,931.39119,0.99436,0.88354
929.46285,0.9779,1.00033,929.46285,0.99495,0.88528
927.5345,0.97838,0.99968,927.5345,0.99551,0.88584
925.60616,0.97892,0.99878,925.60616,0.99609,0.88442
923.67781,0.97958,0.99745,923.67781,0.99654,0.87969
921.74946,0.98047,0.99564,921.74946,0.99684,0.87034
919.82112,0.98162,0.99347,919.82112,0.99691,0.85867
917.89277,0.98288,0.9909,917.89277,0.99652,0.85198
915.96442,0.98413,0.98779,915.96442,0.99557,0.85455
914.03608,0.98532,0.98428,914.03608,0.99392,0.86332
912.10773,0.98642,0.98097,912.10773,0.99146,0.87493
910.17939,0.98759,0.97837,910.17939,0.98823,0.88871
908.25104,0.98882,0.97645,908.25104,0.98422,0.90345
906.32269,0.99001,0.97495,906.32269,0.97957,0.91722
904.39435,0.99104,0.97355,904.39435,0.97477,0.9286
902.466,0.99183,0.97187,902.466,0.97036,0.93703
900.53766,0.99241,0.96962,900.53766,0.96682,0.94275
898.60931,0.99289,0.96666,898.60931,0.96461,0.94616
896.68096,0.99323,0.96296,896.68096,0.96374,0.94687
894.75262,0.99332,0.95854,894.75262,0.96377,0.94333
892.82427,0.9932,0.95331,892.82427,0.96405,0.93287
890.89592,0.99292,0.94713,890.89592,0.96383,0.91156
888.96758,0.99231,0.9399,888.96758,0.96226,0.87625
887.03923,0.99104,0.93128,887.03923,0.95837,0.83124
885.11089,0.98899,0.92082,885.11089,0.95154,0.79197
883.18254,0.9861,0.90823,883.18254,0.9414,0.77396
881.25419,0.98213,0.89331,881.25419,0.92722,0.77946
879.32585,0.97705,0.87588,879.32585,0.90743,0.79949
877.3975,0.97134,0.85578,877.3975,0.87768,0.82282
875.46916,0.96605,0.83309,875.46916,0.83068,0.84104
873.54081,0.96217,0.80829,873.54081,0.77535,0.85009
871.61246,0.95992,0.7827,871.61246,0.75043,0.84949
869.68412,0.95909,0.75866,869.68412,0.78031,0.84191
867.75577,0.9594,0.73921,867.75577,0.83694,0.83343
865.82742,0.96055,0.72711,865.82742,0.88153,0.82964
863.89908,0.96232,0.72341,863.89908,0.90537,0.82989
861.97073,0.96442,0.72662,861.97073,0.91574,0.82828
860.04239,0.96631,0.73343,860.04239,0.91842,0.81961
858.11404,0.96742,0.73994,858.11404,0.9163,0.80342
856.18569,0.96735,0.74259,856.18569,0.91084,0.78505
854.25735,0.96601,0.73902,854.25735,0.90304,0.7726
852.329,0.96384,0.72878,852.329,0.89382,0.76996
850.40066,0.96149,0.71326,850.40066,0.88509,0.77372
848.47231,0.95947,0.69545,848.47231,0.88027,0.77824
846.54396,0.95839,0.67962,846.54396,0.88241,0.78061
844.61562,0.95878,0.67027,844.61562,0.89105,0.78051
842.68727,0.96052,0.6705,842.68727,0.90284,0.77856
840.75892,0.96293,0.68072,840.75892,0.91466,0.7753
838.83058,0.96528,0.69838,838.83058,0.92523,0.77042
836.90223,0.96699,0.71899,836.90223,0.93463,0.76215
834.97389,0.96756,0.73753,834.97389,0.94301,0.74793
833.04554,0.96661,0.74982,833.04554,0.95004,0.72668
831.11719,0.96414,0.75335,831.11719,0.95545,0.70009
829.18885,0.96054,0.74683,829.18885,0.95946,0.67043
827.2605,0.95609,0.72981,827.2605,0.96227,0.63815
825.33216,0.95128,0.70347,825.33216,0.96408,0.60368
823.40381,0.94723,0.67132,823.40381,0.96517,0.57004
821.47546,0.9448,0.63849,821.47546,0.9656,0.54218
819.54712,0.94392,0.60935,819.54712,0.96553,0.52496
817.61877,0.94389,0.58548,817.61877,0.96523,0.52231
815.69042,0.94387,0.56528,815.69042,0.96491,0.53236
813.76208,0.9434,0.54536,813.76208,0.96468,0.54053
811.83373,0.94241,0.52264,811.83373,0.96448,0.53261
809.90539,0.94121,0.49568,809.90539,0.9641,0.52022
807.97704,0.94033,0.46463,807.97704,0.96353,0.52841
806.04869,0.94004,0.43067,806.04869,0.96291,0.55803
804.12035,0.94047,0.39555,804.12035,0.96224,0.58757
802.192,0.94186,0.36141,802.192,0.96141,0.60517
800.26366,0.94416,0.33038,800.26366,0.95982,0.61735
798.33531,0.94712,0.30428,798.33531,0.95606,0.63637
796.40696,0.95083,0.28433,796.40696,0.94949,0.66937
794.47862,0.9557,0.2714,794.47862,0.94319,0.71133
792.55027,0.9618,0.26655,792.55027,0.94235,0.75052
790.62192,0.96873,0.27139,790.62192,0.94828,0.78131
788.69358,0.97612,0.28742,788.69358,0.95749,0.80477
786.76523,0.98348,0.31511,786.76523,0.96655,0.82253
784.83689,0.99,0.35308,784.83689,0.97423,0.8352
782.90854,0.99523,0.39801,782.90854,0.98024,0.84272
780.98019,0.99931,0.44582,780.98019,0.98476,0.84489
779.05185,1.00228,0.4932,779.05185,0.9882,0.84245
777.1235,1.00416,0.53788,777.1235,0.99093,0.83818
775.19516,1.00522,0.57832,775.19516,0.99331,0.8364
773.26681,1.0057,0.61377,773.26681,0.99546,0.84032
771.33846,1.00575,0.6443,771.33846,0.99736,0.84984
769.41012,1.00558,0.67004,769.41012,0.99915,0.86224
767.48177,1.00527,0.69019,767.48177,1.00077,0.87472
765.55342,1.00465,0.70299,765.55342,1.00191,0.88525
763.62508,1.00366,0.70632,763.62508,1.00253,0.89232
761.69673,1.00247,0.69932,761.69673,1.00297,0.8948
759.76839,1.00137,0.68512,759.76839,1.00337,0.89237
757.84004,1.00086,0.67206,757.84004,1.00378,0.88698
755.91169,1.00142,0.67058,755.91169,1.00421,0.88208
753.98335,1.00305,0.68638,753.98335,1.00463,0.87959
752.055,1.00528,0.71622,752.055,1.00485,0.88159
750.12666,1.0074,0.75121,750.12666,1.00417,0.89084
748.19831,1.0088,0.78347,748.19831,1.00171,0.9046
746.26996,1.00938,0.80956,746.26996,0.9966,0.91654
744.34162,1.00919,0.8296,744.34162,0.987,0.92494
742.41327,1.00781,0.84496,742.41327,0.9695,0.93116
740.48492,1.00397,0.85713,740.48492,0.93993,0.93524
738.55658,0.99577,0.86733,738.55658,0.89502,0.93542
736.62823,0.98249,0.87628,736.62823,0.83439,0.92702
734.69989,0.96759,0.88403,734.69989,0.76153,0.9015
732.77154,0.95907,0.89045,732.77154,0.68248,0.85133
730.84319,0.96266,0.89573,730.84319,0.60303,0.77846
728.91485,0.97484,0.90024,728.91485,0.52754,0.69507
726.9865,0.98667,0.90414,726.9865,0.463,0.61201
725.05816,0.99355,0.90791,725.05816,0.42168,0.53037
723.12981,0.99809,0.91341,723.12981,0.41092,0.45902
721.20146,0.99884,0.91588,721.20146,0.42759,0.43042
719.27312,0.99825,0.91621,719.27312,0.46475,0.46249
717.34477,0.99615,0.91434,717.34477,0.51713,0.53574
715.41642,0.9922,0.90975,715.41642,0.57583,0.61416
713.48808,0.9875,0.90254,713.48808,0.63021,0.67667
711.55973,0.98225,0.89229,711.55973,0.67549,0.71906
709.63139,0.97661,0.88023,709.63139,0.7124,0.74281
707.70304,0.97099,0.86885,707.70304,0.74335,0.75195
705.77469,0.9656,0.86019,705.77469,0.77002,0.75452
703.84635,0.96068,0.85508,703.84635,0.79367,0.76077
701.918,0.95662,0.85326,701.918,0.81624,0.77618
699.98966,0.95367,0.8536,699.98966,0.83925,0.79753
698.06131,0.95183,0.85476,698.06131,0.86161,0.81788
696.13296,0.95097,0.85571,696.13296,0.8809,0.83334
694.20462,0.9508,0.85587,694.20462,0.89621,0.84423
692.27627,0.95108,0.85533,692.27627,0.90836,0.85239
690.34792,0.95182,0.855,690.34792,0.91833,0.85921
688.41958,0.95317,0.85634,688.41958,0.92642,0.86524
686.49123,0.95506,0.86056,686.49123,0.93245,0.87064
684.56289,0.95719,0.86775,684.56289,0.93648,0.87549
682.63454,0.95927,0.87681,682.63454,0.93932,0.87994
680.70619,0.96127,0.88624,680.70619,0.94225,0.88411
678.77785,0.96343,0.89486,678.77785,0.94633,0.88799
676.8495,0.96626,0.90197,676.8495,0.95178,0.89158
674.92115,0.97031,0.9073,674.92115,0.95786,0.89517
672.99281,0.97533,0.91105,672.99281,0.96311,0.89845
671.06446,0.97893,0.91301,671.06446,0.96651,0.89986
669.13612,0.98043,0.91249,669.13612,0.97003,0.90009
667.20777,0.98411,0.91043,667.20777,0.97541,0.90253
665.27942,0.98993,0.90789,665.27942,0.97908,0.90583
663.35108,0.99223,0.90448,663.35108,0.97975,0.90632
661.42273,0.99037,0.90339,661.42273,0.98081,0.90533
659.49439,0.98754,0.91187,659.49439,0.98239,0.90492
657.56604,0.98391,0.93074,657.56604,0.98377,0.90531
655.63769,0.97864,0.95261,655.63769,0.985,0.90592
653.70935,0.97192,0.96982,653.70935,0.98617,0.90588
651.781,0.96463,0.98069,651.781,0.98666,0.90381
649.85265,0.95732,0.98784,649.85265,0.98605,0.89919