Time[s],Wavelength [nm],Voltage [V]
3726663963.4657001500,600.0000000000,0.1264823000
3726663969.9526953700,600.0937500000,0.1256480000
3726663970.8364553400,600.1875000000,0.1244450000
3726663971.7151150700,600.3125000000,0.1255438000
3726663972.5957770300,600.4062500000,0.1206575000
3726663973.4804720900,600.5000000000,0.1248433000
3726663974.3624935100,600.5937500000,0.1203634000
3726663975.2463784200,600.6875000000,0.1245717000
3726663976.1270241700,600.8125000000,0.1298909000
3726663977.0064177500,600.9062500000,0.1243000000
3726663977.8870320300,601.0000000000,0.1211508000
3726663978.7665329000,601.0937500000,0.1231839000
3726663979.6491966200,601.1875000000,0.1261289000
3726663980.5304904000,601.3125000000,0.1241948000
3726663981.4156136500,601.4062500000,0.1240846000
3726663982.2976775200,601.5000000000,0.1206310000
3726663983.1777057600,601.5937500000,0.1227775000
3726663984.0603823600,601.6875000000,0.1234514000
3726663984.9403834300,601.8125000000,0.1241703000
3726663985.8261790300,601.9062500000,0.1237946000
3726663986.7095041300,602.0000000000,0.1229592000
3726663987.5958447400,602.0937500000,0.1229184000
3726663988.4842224100,602.1875000000,0.1231573000
3726663989.3617777800,602.3125000000,0.1237435000
3726663990.2377953500,602.4062500000,0.1246615000
3726663991.1178622200,602.5000000000,0.1233514000
3726663992.0000944100,602.5937500000,0.1246799000
3726663992.8847928000,602.6875000000,0.1253375000
3726663993.7679505300,602.8125000000,0.1210303000
3726663994.6512098300,602.9062500000,0.1240774000
3726663995.5331087100,603.0000000000,0.1220228000
3726663996.4179639800,603.0937500000,0.1265313000
3726663997.3014273600,603.1875000000,0.1260411000
3726663998.1744704200,603.3125000000,0.1303157000
3726663999.0563640600,603.4062500000,0.1269561000
3726663999.9399905200,603.5000000000,0.1252068000
3726664000.8219885800,603.5937500000,0.1303055000
3726664001.7128496200,603.6875000000,0.1316953000
3726664002.5959134100,603.8125000000,0.1292976000
3726664003.4757041900,603.9062500000,0.1307854000
3726664004.3594408000,604.0000000000,0.1328472000
3726664005.2397184400,604.0937500000,0.1310326000
3726664006.1216950400,604.1875000000,0.1254356000
3726664007.0040359500,604.3125000000,0.1272624000
3726664007.8829469700,604.4062500000,0.1297500000
3726664008.7654352200,604.5000000000,0.1250414000
3726664009.6477775600,604.5937500000,0.1234331000
3726664010.5304241200,604.6875000000,0.1232656000
3726664011.4078645700,604.8125000000,0.1230940000
3726664012.2895050000,604.9062500000,0.1264189000
3726664013.1766886700,605.0000000000,0.1254642000
3726664014.0609598200,605.0937500000,0.1226937000
3726664014.9435801500,605.1875000000,0.1245798000
3726664015.8237037600,605.3125000000,0.1248433000
3726664016.7112126300,605.4062500000,0.1229572000
3726664017.5937066100,605.5000000000,0.1227959000
3726664018.4751629800,605.5937500000,0.1257194000
3726664019.3565425900,605.6875000000,0.1238272000
3726664020.2398777000,605.8125000000,0.1225385000
3726664021.1183953300,605.9062500000,0.1219432000
3726664022.0001950300,606.0000000000,0.1251741000
3726664022.8854985200,606.0937500000,0.1235168000
3726664023.7736158400,606.1875000000,0.1245982000
3726664024.6614632600,606.3125000000,0.1268968000
3726664025.5455718000,606.4062500000,0.1256520000
3726664026.4239521000,606.5000000000,0.1263822000
3726664027.3083071700,606.5937500000,0.1264169000
3726664028.1923217800,606.6875000000,0.1248453000
3726664029.0776743900,606.8125000000,0.1263822000
3726664029.9555625900,606.9062500000,0.1259073000
3726664030.8401985200,607.0000000000,0.1226815000
3726664031.7236838300,607.0937500000,0.1248739000
3726664032.6080064800,607.1875000000,0.1247677000
3726664033.4887566600,607.3125000000,0.1200714000
3726664034.3740687400,607.4062500000,0.1256623000
3726664035.2567210200,607.5000000000,0.1248249000
3726664036.1374287600,607.5937500000,0.1263025000
3726664037.0210962300,607.6875000000,0.1236148000
3726664037.9023880900,607.8125000000,0.1243940000
3726664038.7893614800,607.9062500000,0.1228796000
3726664039.6718735700,608.0000000000,0.1212079000
3726664040.5584402100,608.0937500000,0.1242449000
3726664041.4427185000,608.1875000000,0.1242776000
3726664042.3291544900,608.3125000000,0.1248698000
3726664043.2158231700,608.4062500000,0.1239865000
3726664044.1046519300,608.5000000000,0.1246391000
3726664044.9794101700,608.5937500000,0.1231512000
3726664045.8623609500,608.6875000000,0.1261800000
3726664046.7483453700,608.8125000000,0.1249495000
3726664047.6355710000,608.9062500000,0.1227591000
3726664048.5173401800,609.0000000000,0.1231655000
3726664049.3997049300,609.0937500000,0.1214387000
3726664050.2802143100,609.1875000000,0.1214020000
3726664051.1647448500,609.3125000000,0.1254274000
3726664052.0450897200,609.4062500000,0.1229531000
3726664052.9296598400,609.5000000000,0.1237455000
3726664053.8166503900,609.5937500000,0.1226917000
3726664054.7014255500,609.6875000000,0.1238334000
3726664055.5870637900,609.8125000000,0.1241601000
3726664056.4723782500,609.9062500000,0.1228285000
3726664057.3565526000,610.0000000000,0.1234474000
3726664058.2307734500,610.0937500000,0.1234739000
3726664059.1117720600,610.1875000000,0.1284480000
3726664059.9963374100,610.3125000000,0.1236148000
3726664060.8783550300,610.4062500000,0.1233575000
3726664061.7633762400,610.5000000000,0.1241172000
3726664062.6491022100,610.5937500000,0.1245676000
3726664063.5318050400,610.6875000000,0.1272195000
3726664064.4094815200,610.8125000000,0.1288279000
3726664065.2867560400,610.9062500000,0.1330289000
3726664066.1702938100,611.0000000000,0.1390129000
3726664067.0548734700,611.0937500000,0.1686297000
3726664067.9377007500,611.1875000000,0.2136377000
3726664068.8185143500,611.3125000000,0.2342182000
3726664069.6959743500,611.4062500000,0.2445871000
3726664070.5819726000,611.5000000000,0.2767435000
3726664071.4624080600,611.5937500000,0.3217564000
3726664072.3467869700,611.6875000000,0.3533685000
3726664073.2272086100,611.8125000000,0.3555620000
3726664074.1054711300,611.9062500000,0.3580771000
3726664074.9856505400,612.0000000000,0.3465624000
3726664075.8639240300,612.0937500000,0.3183375000
3726664076.7407159800,612.1875000000,0.2643374000
3726664077.6180000300,612.3125000000,0.2414970000
3726664078.4977488500,612.4062500000,0.2242966000
3726664079.3790807700,612.5000000000,0.1955037000
3726664080.2593569700,612.5937500000,0.1547848000
3726664081.1398353600,612.6875000000,0.1320139000
3726664082.0267262400,612.8125000000,0.1307630000
3726664082.9086561200,612.9062500000,0.1279864000
3726664083.7909431400,613.0000000000,0.1258961000
3726664084.6697936000,613.0937500000,0.1259216000
3726664085.5525693900,613.1875000000,0.1249107000
3726664086.4341535600,613.3125000000,0.1237149000
3726664087.3201293900,613.4062500000,0.1256868000
3726664088.2020926500,613.5000000000,0.1239028000
3726664089.0828185100,613.5937500000,0.1207566000
3726664089.9661994000,613.6875000000,0.1259186000
3726664090.8470878600,613.8125000000,0.1217022000
3726664091.7323646500,613.9062500000,0.1258849000
3726664092.6139946000,614.0000000000,0.1299297000
3726664093.5017066000,614.0937500000,0.1538586000
3726664094.3821105900,614.1875000000,0.1538382000
3726664095.2638278000,614.3125000000,0.1272502000
3726664096.1446361500,614.4062500000,0.1222332000
3726664097.0292191500,614.5000000000,0.1229449000
3726664097.9097318600,614.5937500000,0.1275892000
3726664098.7908616100,614.6875000000,0.1226304000
3726664099.6745648400,614.8125000000,0.1221770000
3726664100.5564160300,614.9062500000,0.1239150000
3726664101.4406566600,615.0000000000,0.1230266000
3726664102.3226542500,615.0937500000,0.1252436000
3726664103.2046761500,615.1875000000,0.1260615000
3726664104.0855832100,615.3125000000,0.1239130000
3726664104.9740448000,615.4062500000,0.1239273000
3726664105.8580350900,615.5000000000,0.1213203000
3726664106.7438821800,615.5937500000,0.1245104000
3726664107.6265230200,615.6875000000,0.1220678000
3726664108.5086536400,615.8125000000,0.1234371000
3726664109.3935408600,615.9062500000,0.1253620000
3726664110.2704672800,616.0000000000,0.1201388000
3726664111.1502561600,616.0937500000,0.1244695000
3726664112.0289249400,616.1875000000,0.1217635000
3726664112.9137854600,616.3125000000,0.1255846000
3726664113.7986049600,616.4062500000,0.1241632000
3726664114.6785416600,616.5000000000,0.1255663000
3726664115.5652337100,616.5937500000,0.1233412000
3726664116.4393153200,616.6875000000,0.1241622000
3726664117.3212761900,616.8125000000,0.1247044000
3726664118.1982264500,616.9062500000,0.1224670000
3726664119.0805602100,617.0000000000,0.1250618000
3726664119.9655070300,617.0937500000,0.1272828000
3726664120.8431024500,617.1875000000,0.1250924000
3726664121.7259793300,617.3125000000,0.1234188000
3726664122.6062688800,617.4062500000,0.1260717000
3726664123.4897632600,617.5000000000,0.1258420000
3726664124.3699865300,617.5937500000,0.1246370000
3726664125.2526712400,617.6875000000,0.1238272000
3726664126.1314625700,617.8125000000,0.1263801000
3726664127.0135183300,617.9062500000,0.1263515000
3726664127.8956160500,618.0000000000,0.1228694000
3726664128.7852120400,618.0937500000,0.1269908000
3726664129.6674017900,618.1875000000,0.1229327000
3726664130.5464248600,618.3125000000,0.1232942000
3726664131.4227671600,618.4062500000,0.1238987000
3726664132.3013176900,618.5000000000,0.1247922000
3726664133.1835112600,618.5937500000,0.1253008000
3726664134.0640311200,618.6875000000,0.1287707000
3726664134.9471650100,618.8125000000,0.1277720000
3726664135.8320078800,618.9062500000,0.1291608000
3726664136.7152023300,619.0000000000,0.1283112000
3726664137.5951848000,619.0937500000,0.1324407000
3726664138.4738678900,619.1875000000,0.1342268000
3726664139.3629975300,619.3125000000,0.1405079000
3726664140.2497062700,619.4062500000,0.1422909000
3726664141.1302433000,619.5000000000,0.1421071000
3726664142.0135822300,619.5937500000,0.1465205000
3726664142.8968992200,619.6875000000,0.1468800000
3726664143.7783122100,619.8125000000,0.1450531000
3726664144.6609382600,619.9062500000,0.1448897000
3726664145.5384225800,620.0000000000,0.1431936000
3726664146.4144029600,620.0937500000,0.1369941000
3726664147.2953953700,620.1875000000,0.1372800000
3726664148.1749978100,620.3125000000,0.1307140000
3726664149.0561919200,620.4062500000,0.1346669000
3726664149.9365510900,620.5000000000,0.1302871000
3726664150.8166222600,620.5937500000,0.1278598000
3726664151.7024946200,620.6875000000,0.1245329000
3726664152.5869479200,620.8125000000,0.1262944000
3726664153.4646735200,620.9062500000,0.1233943000
3726664154.3505353900,621.0000000000,0.1238068000
3726664155.2377438500,621.0937500000,0.1240590000
3726664156.1203351000,621.1875000000,0.1253620000
3726664157.0035095200,621.3125000000,0.1247248000
3726664157.8832154300,621.4062500000,0.1248719000
3726664158.7652006100,621.5000000000,0.1227938000
3726664159.6514406200,621.5937500000,0.1263638000
3726664160.5327200900,621.6875000000,0.1237047000
3726664161.4094872500,621.8125000000,0.1239916000
3726664162.2906503700,621.9062500000,0.1261248000
3726664163.1758136700,622.0000000000,0.1259655000
3726664164.0592265100,622.0937500000,0.1221025000
3726664164.9405927600,622.1875000000,0.1223516000
3726664165.8219695100,622.3125000000,0.1245717000
3726664166.7033968000,622.4062500000,0.1232247000
3726664167.5866894700,622.5000000000,0.1239620000
3726664168.4684481600,622.5937500000,0.1221903000
3726664169.3540129600,622.6875000000,0.1222373000
3726664170.2371344600,622.8125000000,0.1228163000
3726664171.1209616600,622.9062500000,0.1226018000
3726664172.0019183100,623.0000000000,0.1201204000
3726664172.8874449700,623.0937500000,0.1239110000
3726664173.7658615100,623.1875000000,0.1240274000
3726664174.6441631300,623.3125000000,0.1219616000
3726664175.5311961200,623.4062500000,0.1205605000
3726664176.4147191000,623.5000000000,0.1255070000
3726664177.2954888300,623.5937500000,0.1215551000
3726664178.1725454300,623.6875000000,0.1215225000
3726664179.0577817000,623.8125000000,0.1223159000
3726664179.9432783100,623.9062500000,0.1248004000
3726664180.8253927200,624.0000000000,0.1254315000
3726664181.7075142800,624.0937500000,0.1221556000
3726664182.5889158200,624.1875000000,0.1230123000
3726664183.4726333600,624.3125000000,0.1222608000
3726664184.3545255600,624.4062500000,0.1237700000
3726664185.2347679100,624.5000000000,0.1265313000
3726664186.1142959600,624.5937500000,0.1234719000
3726664186.9994559300,624.6875000000,0.1236250000
3726664187.8806834200,624.8125000000,0.1243184000
3726664188.7619457200,624.9062500000,0.1219166000
3726664189.6477465600,625.0000000000,0.1235066000
3726664190.5338616400,625.0937500000,0.1229123000
3726664191.4164080600,625.1875000000,0.1258941000
3726664192.2998495100,625.3125000000,0.1253334000
3726664193.1843485800,625.4062500000,0.1247187000
3726664194.0710578000,625.5000000000,0.1227979000
3726664194.9555935800,625.5937500000,0.1267273000
3726664195.8426985700,625.6875000000,0.1252844000
3726664196.7270970300,625.8125000000,0.1224507000
3726664197.6099567400,625.9062500000,0.1245696000
3726664198.4774985300,626.0000000000,0.1244879000
3726664199.3503489500,626.0937500000,0.1240743000
3726664200.2189297700,626.1875000000,0.1266089000
3726664201.0887966100,626.3125000000,0.1238844000
3726664201.9589982000,626.4062500000,0.1234984000
3726664202.8281455000,626.5000000000,0.1241305000
3726664203.6974425300,626.5937500000,0.1237312000
3726664204.5674414600,626.6875000000,0.1282764000
3726664205.4384417500,626.8125000000,0.1234086000
3726664206.3074417100,626.9062500000,0.1250720000
3726664207.1774406400,627.0000000000,0.1260023000
3726664208.0484414100,627.0937500000,0.1246799000
3726664208.9204382900,627.1875000000,0.1316504000
3726664209.7884392700,627.3125000000,0.1331811000
3726664210.6571841200,627.4062500000,0.1344943000
3726664211.5261840800,627.5000000000,0.1376170000
3726664212.3981823900,627.5937500000,0.1431650000
3726664213.2691817300,627.6875000000,0.1548154000
3726664214.1411809900,627.8125000000,0.1536748000
3726664215.0096640600,627.9062500000,0.1534604000
3726664215.8812093700,628.0000000000,0.1528068000
3726664216.7502336500,628.0937500000,0.1519909000
3726664217.6190838800,628.1875000000,0.1420192000
3726664218.4910831400,628.3125000000,0.1392703000
3726664219.3631157900,628.4062500000,0.1415812000
3726664220.2310833900,628.5000000000,0.1345474000
3726664221.1040830600,628.5937500000,0.1293527000
3726664221.9751105300,628.6875000000,0.1274820000
3726664222.8470816600,628.8125000000,0.1249699000
3726664223.7170815500,628.9062500000,0.1254846000
3726664224.5870800000,629.0000000000,0.1247657000
3726664225.4560813900,629.0937500000,0.1245962000
3726664226.3260808000,629.1875000000,0.1218063000
3726664227.1970801300,629.3125000000,0.1248821000
3726664228.0670785900,629.4062500000,0.1232901000
3726664228.9380798300,629.5000000000,0.1254274000
3726664229.8050799400,629.5937500000,0.1221556000
3726664230.6782512700,629.6875000000,0.1247350000
3726664231.5480690000,629.8125000000,0.1214694000
3726664232.4114537200,629.9062500000,0.1217247000
3726664233.2804193500,630.0000000000,0.1250863000
3726664234.1517720200,630.0937500000,0.1263822000
3726664235.0210399600,630.1875000000,0.1233840000
3726664235.8894648500,630.3125000000,0.1239110000
3726664236.7621784200,630.4062500000,0.1218635000
3726664237.6331791900,630.5000000000,0.1232350000
3726664238.5062112800,630.5937500000,0.1222720000
3726664239.3755774500,630.6875000000,0.1218329000
3726664240.2483282100,630.8125000000,0.1236373000
3726664241.1163744900,630.9062500000,0.1223833000
3726664241.9864416100,631.0000000000,0.1225977000
3726664242.8550286300,631.0937500000,0.1231533000
3726664243.7236752500,631.1875000000,0.1244389000
3726664244.5946121200,631.3125000000,0.1283397000
3726664245.4653677900,631.4062500000,0.1226713000
3726664246.3330121000,631.5000000000,0.1232901000
3726664247.2047414800,631.5937500000,0.1242285000
3726664248.0754714000,631.6875000000,0.1232411000
3726664248.9476833300,631.8125000000,0.1229266000
3726664249.8185062400,631.9062500000,0.1216470000
3726664250.6878495200,632.0000000000,0.1233759000
3726664251.5545287100,632.0937500000,0.1224548000
3726664252.4242520300,632.1875000000,0.1265272000
3726664253.2949247400,632.3125000000,0.1246574000
3726664254.1647791900,632.4062500000,0.1228326000
3726664255.0369143500,632.5000000000,0.1232002000
3726664255.9097695300,632.5937500000,0.1263352000
3726664256.7798810000,632.6875000000,0.1206637000
3726664257.6492366800,632.8125000000,0.1218880000
3726664258.5199551600,632.9062500000,0.1216348000
3726664259.3902301800,633.0000000000,0.1274707000
3726664260.2605743400,633.0937500000,0.1236230000
3726664261.1306920000,633.1875000000,0.1243021000
3726664262.0006089200,633.3125000000,0.1207586000
3726664262.8726415600,633.4062500000,0.1221617000
3726664263.7460842100,633.5000000000,0.1231655000
3726664264.6173224400,633.5937500000,0.1219595000
3726664265.4883418100,633.6875000000,0.1218737000
3726664266.3609809900,633.8125000000,0.1237598000
3726664267.2343378100,633.9062500000,0.1209527000
3726664268.1083169000,634.0000000000,0.1229082000
3726664268.9812927200,634.0937500000,0.1252089000
3726664269.8545694300,634.1875000000,0.1234902000
3726664270.7257685600,634.3125000000,0.1242449000
3726664271.5956177700,634.4062500000,0.1270541000
3726664272.4626536400,634.5000000000,0.1224466000
3726664273.3362903600,634.5937500000,0.1226059000
3726664274.2069902400,634.6875000000,0.1229490000
3726664275.0753445600,634.8125000000,0.1237680000
3726664275.9416790000,634.9062500000,0.1235842000
3726664276.8114762300,635.0000000000,0.1242816000
3726664277.6804761900,635.0937500000,0.1255928000
3726664278.5498390200,635.1875000000,0.1230205000
3726664279.4199438100,635.3125000000,0.1227407000
3726664280.2889294600,635.4062500000,0.1266395000
3726664281.1589303000,635.5000000000,0.1231798000
3726664282.0329294200,635.5937500000,0.1263230000
3726664282.8997125600,635.6875000000,0.1277659000
3726664283.7722568500,635.8125000000,0.1300482000
3726664284.6430535300,635.9062500000,0.1342022000
3726664285.5133504900,636.0000000000,0.1349160000
3726664286.3835854500,636.0937500000,0.1410665000
3726664287.2542471900,636.1875000000,0.1425972000
3726664288.1270194000,636.3125000000,0.1447406000
3726664288.9950184800,636.4062500000,0.1471669000
3726664289.8659849200,636.5000000000,0.1447202000
3726664290.7374014800,636.5937500000,0.1446630000
3726664291.6070127500,636.6875000000,0.1388679000
3726664292.4773702600,636.8125000000,0.1369716000
3726664293.3471288700,636.9062500000,0.1370574000
3726664294.2185897800,637.0000000000,0.1315074000
3726664295.0869121500,637.0937500000,0.1274575000
3726664295.9586119600,637.1875000000,0.1281682000
3726664296.8270154000,637.3125000000,0.1261330000
3726664297.6992096900,637.4062500000,0.1262658000
3726664298.5684704800,637.5000000000,0.1250475000
3726664299.4394698100,637.5937500000,0.1240498000
3726664300.3084721600,637.6875000000,0.1254111000
3726664301.1823649400,637.8125000000,0.1230450000
3726664302.0496525800,637.9062500000,0.1263087000
3726664302.9217119200,638.0000000000,0.1234004000
3726664303.7877712200,638.0937500000,0.1244552000
3726664304.6546216000,638.1875000000,0.1233371000
3726664305.5225930200,638.3125000000,0.1206381000
3726664306.3967905000,638.4062500000,0.1224119000
3726664307.2674493800,638.5000000000,0.1238456000
3726664308.1376743300,638.5937500000,0.1241591000
3726664309.0068426100,638.6875000000,0.1244042000
3726664309.8782854100,638.8125000000,0.1257051000
3726664310.7476625400,638.9062500000,0.1250169000
3726664311.6177253700,639.0000000000,0.1233187000
3726664312.4910774200,639.0937500000,0.1249556000
3726664313.3595247300,639.1875000000,0.1234739000
3726664314.2308015800,639.3125000000,0.1254948000
3726664315.1000933600,639.4062500000,0.1239293000
3726664315.9704279900,639.5000000000,0.1231308000
3726664316.8406510300,639.5937500000,0.1246881000
3726664317.7114553400,639.6875000000,0.1262106000
3726664318.5774993900,639.8125000000,0.1242102000
